time,raw_emg
0.0,0.024
0.001,0.0716
0.002,0.206
0.003,0.3115
0.004,0.2864
0.005,0.3208
0.006,0.4167
0.007,0.3802
0.008,0.2009
0.009,0.2642
0.01,0.0075
0.011,-0.1106
0.012,-0.1792
0.013,-0.3658
0.014,-0.3871
0.015,-0.2943
0.016,-0.3414
0.017,-0.3113
0.018,-0.1763
0.019,-0.0843
0.02,0.0129
0.021,0.1247
0.022,0.241
0.023,0.3399
0.024,0.4766
0.025,0.4887
0.026,0.3662
0.027,0.3338
0.028,0.3202
0.029,0.2441
0.03,0.0756
0.031,-0.1626
0.032,-0.2373
0.033,-0.3308
0.034,-0.3607
0.035,-0.349
0.036,-0.341
0.037,-0.2848
0.038,-0.2067
0.039,0.0212
0.04,0.0595
0.041,0.131
0.042,0.3133
0.043,0.322
0.044,0.4276
0.045,0.4927
0.046,0.4667
0.047,0.3916
0.048,0.2943
0.049,0.1192
0.05,0.0308
0.051,0.0034
0.052,-0.136
0.053,-0.3384
0.054,-0.4008
0.055,-0.262
0.056,-0.3697
0.057,-0.3229
0.058,-0.075
0.059,-0.1351
0.06,0.1195
0.061,0.2176
0.062,0.221
0.063,0.4061
0.064,0.4024
0.065,0.3751
0.066,0.4469
0.067,0.4646
0.068,0.2329
0.069,0.2363
0.07,0.1299
0.071,-0.0939
0.072,-0.1474
0.073,-0.2182
0.074,-0.2718
0.075,-0.408
0.076,-0.3769
0.077,-0.1777
0.078,-0.2225
0.079,-0.1177
0.08,0.0418
0.081,0.1781
0.082,0.2796
0.083,0.3791
0.084,0.4782
0.085,0.4307
0.086,0.4586
0.087,0.4375
0.088,0.3806
0.089,0.3051
0.09,0.0197
0.091,-0.0465
0.092,-0.0979
0.093,-0.2326
0.094,-0.3146
0.095,-0.3264
0.096,-0.3083
0.097,-0.2552
0.098,-0.0804
0.099,0.0218
0.1,0.1417
0.101,0.3611
0.102,0.2876
0.103,0.4357
0.104,0.4519
0.105,0.5194
0.106,0.5918
0.107,0.3743
0.108,0.2882
0.109,0.2173
0.11,0.0337
0.111,0.0056
0.112,-0.0312
0.113,-0.2708
0.114,-0.2584
0.115,-0.3269
0.116,-0.274
0.117,-0.2172
0.118,-0.142
0.119,0.0187
0.12,0.1427
0.121,0.2009
0.122,0.2793
0.123,0.5045
0.124,0.6299
0.125,0.4819
0.126,0.5288
0.127,0.4222
0.128,0.4115
0.129,0.2189
0.13,0.2078
0.131,-0.0569
0.132,-0.1169
0.133,-0.2094
0.134,-0.2694
0.135,-0.2428
0.136,-0.2392
0.137,-0.2275
0.138,-0.2179
0.139,-0.0095
0.14,0.08
0.141,0.2192
0.142,0.3522
0.143,0.4755
0.144,0.6164
0.145,0.4981
0.146,0.5275
0.147,0.4723
0.148,0.4268
0.149,0.2413
0.15,0.2371
0.151,0.0844
0.152,-0.144
0.153,-0.2247
0.154,-0.2456
0.155,-0.2818
0.156,-0.2611
0.157,-0.1881
0.158,-0.052
0.159,0.0438
0.16,0.1756
0.161,0.2912
0.162,0.3497
0.163,0.4664
0.164,0.5133
0.165,0.6301
0.166,0.4532
0.167,0.4998
0.168,0.4212
0.169,0.259
0.17,0.1289
0.171,-0.0148
0.172,-0.0485
0.173,-0.1946
0.174,-0.2248
0.175,-0.3154
0.176,-0.2317
0.177,-0.2078
0.178,-0.0759
0.179,0.1163
0.18,0.1145
0.181,0.2895
0.182,0.3476
0.183,0.5747
0.184,0.5869
0.185,0.6044
0.186,0.6268
0.187,0.4892
0.188,0.4661
0.189,0.2411
0.19,0.1596
0.191,0.0637
0.192,-0.0166
0.193,-0.2213
0.194,-0.2315
0.195,-0.2229
0.196,-0.1975
0.197,-0.1835
0.198,0.0268
0.199,0.065
0.2,0.238
0.201,0.3586
0.202,0.4572
0.203,0.5005
0.204,0.5717
0.205,0.5192
0.206,0.5313
0.207,0.4855
0.208,0.4571
0.209,0.3163
0.21,0.2363
0.211,0.0955
0.212,-0.0495
0.213,-0.2119
0.214,-0.1571
0.215,-0.2589
0.216,-0.2117
0.217,-0.0902
0.218,-0.072
0.219,0.0587
0.22,0.2763
0.221,0.2582
0.222,0.4395
0.223,0.6531
0.224,0.6277
0.225,0.6855
0.226,0.5592
0.227,0.58
0.228,0.4756
0.229,0.3559
0.23,0.2375
0.231,0.0774
0.232,0.0114
0.233,-0.0425
0.234,-0.1951
0.235,-0.2073
0.236,-0.1091
0.237,-0.1893
0.238,-0.0476
0.239,0.0822
0.24,0.2926
0.241,0.3873
0.242,0.5372
0.243,0.5492
0.244,0.5793
0.245,0.6904
0.246,0.6055
0.247,0.5672
0.248,0.4663
0.249,0.3123
0.25,0.256
0.251,0.1202
0.252,0.0025
0.253,-0.1712
0.254,-0.1581
0.255,-0.1773
0.256,-0.0743
0.257,-0.2015
0.258,-0.0966
0.259,0.1107
0.26,0.1483
0.261,0.3466
0.262,0.3882
0.263,0.6404
0.264,0.6974
0.265,0.6196
0.266,0.6659
0.267,0.5697
0.268,0.494
0.269,0.3389
0.27,0.2612
0.271,0.1432
0.272,0.015
0.273,-0.0278
0.274,-0.1536
0.275,-0.1581
0.276,-0.1354
0.277,-0.0562
0.278,0.0766
0.279,0.1273
0.28,0.1911
0.281,0.3678
0.282,0.4727
0.283,0.5533
0.284,0.583
0.285,0.6805
0.286,0.5382
0.287,0.5463
0.288,0.4522
0.289,0.4337
0.29,0.3026
0.291,0.147
0.292,-0.0662
0.293,-0.0702
0.294,-0.1639
0.295,-0.0832
0.296,-0.0493
0.297,-0.1343
0.298,0.0061
0.299,0.1464
0.3,0.231
0.301,0.2958
0.302,0.5405
0.303,0.5134
0.304,0.709
0.305,0.663
0.306,0.6861
0.307,0.5772
0.308,0.5246
0.309,0.3529
0.31,0.1918
0.311,0.036
0.312,0.1132
0.313,-0.1079
0.314,-0.13
0.315,-0.2015
0.316,-0.0571
0.317,-0.0478
0.318,0.0612
0.319,0.1171
0.32,0.2771
0.321,0.3953
0.322,0.518
0.323,0.5486
0.324,0.5988
0.325,0.7397
0.326,0.7103
0.327,0.6483
0.328,0.5793
0.329,0.4367
0.33,0.3231
0.331,0.0945
0.332,0.0938
0.333,0.0017
0.334,-0.0038
0.335,-0.1294
0.336,-0.0187
0.337,-0.0251
0.338,0.1314
0.339,0.0851
0.34,0.3086
0.341,0.3822
0.342,0.5036
0.343,0.6736
0.344,0.5942
0.345,0.6631
0.346,0.6509
0.347,0.5138
0.348,0.6292
0.349,0.4371
0.35,0.2762
0.351,0.1681
0.352,0.0952
0.353,-0.1127
0.354,-0.135
0.355,-0.0982
0.356,-0.1135
0.357,-0.0776
0.358,0.0055
0.359,0.1827
0.36,0.2887
0.361,0.4308
0.362,0.5433
0.363,0.6746
0.364,0.725
0.365,0.6996
0.366,0.6575
0.367,0.6472
0.368,0.5439
0.369,0.4243
0.37,0.2625
0.371,0.2327
0.372,0.0089
0.373,-0.0568
0.374,-0.1101
0.375,0.0043
0.376,-0.1765
0.377,0.0099
0.378,0.122
0.379,0.206
0.38,0.2153
0.381,0.3611
0.382,0.5942
0.383,0.635
0.384,0.7177
0.385,0.7137
0.386,0.568
0.387,0.641
0.388,0.5706
0.389,0.4194
0.39,0.2316
0.391,0.3254
0.392,0.0925
0.393,-0.0433
0.394,-0.1806
0.395,-0.0853
0.396,0.0371
0.397,-0.0604
0.398,0.0681
0.399,0.2146
0.4,0.2974
0.401,0.4766
0.402,0.5348
0.403,0.6702
0.404,0.6352
0.405,0.6854
0.406,0.716
0.407,0.6019
0.408,0.4698
0.409,0.4401
0.41,0.3054
0.411,0.2216
0.412,0.0385
0.413,0.0114
0.414,-0.1266
0.415,-0.1097
0.416,-0.1119
0.417,0.0101
0.418,0.1022
0.419,0.1629
0.42,0.2823
0.421,0.4811
0.422,0.6021
0.423,0.5645
0.424,0.669
0.425,0.7429
0.426,0.7034
0.427,0.6372
0.428,0.6315
0.429,0.3692
0.43,0.3455
0.431,0.2448
0.432,0.1076
0.433,-0.0157
0.434,-0.0474
0.435,-0.1669
0.436,0.013
0.437,0.0021
0.438,0.1124
0.439,0.2447
0.44,0.4321
0.441,0.4868
0.442,0.5635
0.443,0.7255
0.444,0.7048
0.445,0.6535
0.446,0.6491
0.447,0.5747
0.448,0.5289
0.449,0.367
0.45,0.1874
0.451,0.2084
0.452,0.1345
0.453,-0.0623
0.454,-0.0673
0.455,-0.0061
0.456,-0.0436
0.457,0.0255
0.458,0.0535
0.459,0.1684
0.46,0.2078
0.461,0.4745
0.462,0.5222
0.463,0.6247
0.464,0.6859
0.465,0.7794
0.466,0.7159
0.467,0.578
0.468,0.5217
0.469,0.4107
0.47,0.3773
0.471,0.2785
0.472,0.1598
0.473,0.0088
0.474,-0.0599
0.475,-0.0673
0.476,-0.1061
0.477,0.1149
0.478,0.0559
0.479,0.2366
0.48,0.3171
0.481,0.5267
0.482,0.5485
0.483,0.6228
0.484,0.7769
0.485,0.8119
0.486,0.6634
0.487,0.5892
0.488,0.5152
0.489,0.4568
0.49,0.2712
0.491,0.1006
0.492,0.0455
0.493,0.0532
0.494,-0.1065
0.495,-0.1422
0.496,0.0051
0.497,0.0355
0.498,0.0959
0.499,0.2114
0.5,0.3705
0.501,0.4089
0.502,0.5032
0.503,0.6536
0.504,0.744
0.505,0.6997
0.506,0.7823
0.507,0.6435
0.508,0.564
0.509,0.4464
0.51,0.2989
0.511,0.1659
0.512,0.0542
0.513,-0.1056
0.514,0.033
0.515,-0.0317
0.516,-0.0743
0.517,-0.0194
0.518,-0.0321
0.519,0.243
0.52,0.2515
0.521,0.43
0.522,0.5663
0.523,0.664
0.524,0.6892
0.525,0.8217
0.526,0.7243
0.527,0.6257
0.528,0.5873
0.529,0.4896
0.53,0.2647
0.531,0.2722
0.532,0.1025
0.533,-0.0374
0.534,0.0313
0.535,-0.0684
0.536,-0.0479
0.537,0.0158
0.538,0.1491
0.539,0.2962
0.54,0.3528
0.541,0.4186
0.542,0.5961
0.543,0.5709
0.544,0.7158
0.545,0.6926
0.546,0.6968
0.547,0.6893
0.548,0.6128
0.549,0.4282
0.55,0.2311
0.551,0.2463
0.552,0.0959
0.553,0.0779
0.554,-0.0173
0.555,-0.1097
0.556,-0.0589
0.557,-0.0025
0.558,0.1717
0.559,0.2227
0.56,0.2971
0.561,0.5324
0.562,0.4946
0.563,0.7253
0.564,0.6938
0.565,0.7203
0.566,0.7014
0.567,0.6337
0.568,0.6343
0.569,0.4758
0.57,0.3978
0.571,0.238
0.572,0.0479
0.573,-0.0406
0.574,-0.0162
0.575,-0.0373
0.576,-0.0567
0.577,0.0583
0.578,-0.0301
0.579,0.2456
0.58,0.2679
0.581,0.4644
0.582,0.5834
0.583,0.6387
0.584,0.6388
0.585,0.7091
0.586,0.753
0.587,0.639
0.588,0.5886
0.589,0.3499
0.59,0.2932
0.591,0.2062
0.592,0.0827
0.593,0.0049
0.594,-0.1058
0.595,-0.0331
0.596,-0.0125
0.597,-0.0051
0.598,0.1102
0.599,0.1509
0.6,0.3328
0.601,0.5199
0.602,0.6783
0.603,0.6772
0.604,0.7156
0.605,0.741
0.606,0.6222
0.607,0.6684
0.608,0.5527
0.609,0.4568
0.61,0.3845
0.611,0.2457
0.612,0.1502
0.613,-0.0999
0.614,-0.0361
0.615,-0.1137
0.616,-0.077
0.617,0.0631
0.618,0.1198
0.619,0.2368
0.62,0.2952
0.621,0.4489
0.622,0.5179
0.623,0.7264
0.624,0.7499
0.625,0.7001
0.626,0.7317
0.627,0.6561
0.628,0.5378
0.629,0.4887
0.63,0.4354
0.631,0.1421
0.632,0.0986
0.633,0.017
0.634,-0.1526
0.635,-0.1511
0.636,-0.0049
0.637,-0.0075
0.638,0.1477
0.639,0.2569
0.64,0.2324
0.641,0.4559
0.642,0.5792
0.643,0.6798
0.644,0.7345
0.645,0.7227
0.646,0.6489
0.647,0.6686
0.648,0.483
0.649,0.3849
0.65,0.2885
0.651,0.1857
0.652,0.1353
0.653,-0.1273
0.654,-0.1316
0.655,-0.0797
0.656,-0.0194
0.657,-0.0481
0.658,-0.0177
0.659,0.1345
0.66,0.2745
0.661,0.4839
0.662,0.4797
0.663,0.5483
0.664,0.7107
0.665,0.681
0.666,0.6875
0.667,0.6065
0.668,0.5365
0.669,0.5209
0.67,0.2411
0.671,0.1235
0.672,0.1094
0.673,0.0369
0.674,-0.1249
0.675,-0.1178
0.676,-0.0493
0.677,-0.0962
0.678,0.1256
0.679,0.2109
0.68,0.2804
0.681,0.5211
0.682,0.5496
0.683,0.5999
0.684,0.7909
0.685,0.6353
0.686,0.6998
0.687,0.6187
0.688,0.5325
0.689,0.4287
0.69,0.3056
0.691,0.2029
0.692,0.0222
0.693,-0.0712
0.694,-0.1417
0.695,-0.039
0.696,-0.0823
0.697,-0.061
0.698,0.0759
0.699,0.1443
0.7,0.2457
0.701,0.4276
0.702,0.4824
0.703,0.5983
0.704,0.6767
0.705,0.7207
0.706,0.6725
0.707,0.6714
0.708,0.3362
0.709,0.4405
0.71,0.28
0.711,0.2015
0.712,-0.021
0.713,-0.0656
0.714,-0.1139
0.715,-0.2045
0.716,0.0322
0.717,-0.0711
0.718,0.0114
0.719,0.1364
0.72,0.2777
0.721,0.414
0.722,0.4729
0.723,0.6474
0.724,0.6059
0.725,0.6946
0.726,0.6896
0.727,0.5371
0.728,0.5652
0.729,0.4277
0.73,0.1357
0.731,0.1056
0.732,-0.0034
0.733,-0.1109
0.734,-0.1791
0.735,-0.0417
0.736,-0.1255
0.737,-0.0788
0.738,-0.0218
0.739,0.1889
0.74,0.2535
0.741,0.4139
0.742,0.4831
0.743,0.5794
0.744,0.6202
0.745,0.7812
0.746,0.5988
0.747,0.5594
0.748,0.4631
0.749,0.278
0.75,0.3047
0.751,0.1925
0.752,-0.0192
0.753,-0.0765
0.754,-0.1487
0.755,-0.1214
0.756,-0.131
0.757,-0.0601
0.758,-0.0196
0.759,0.1335
0.76,0.2003
0.761,0.4632
0.762,0.4576
0.763,0.5444
0.764,0.5327
0.765,0.575
0.766,0.7141
0.767,0.576
0.768,0.4667
0.769,0.4381
0.77,0.2758
0.771,0.0598
0.772,0.022
0.773,-0.1297
0.774,-0.1278
0.775,-0.2087
0.776,-0.1243
0.777,-0.0763
0.778,-0.0089
0.779,0.1605
0.78,0.1711
0.781,0.2836
0.782,0.4372
0.783,0.6637
0.784,0.6116
0.785,0.6387
0.786,0.6115
0.787,0.515
0.788,0.4759
0.789,0.2707
0.79,0.3242
0.791,0.1746
0.792,-0.0232
0.793,-0.1347
0.794,-0.131
0.795,-0.1533
0.796,-0.1622
0.797,-0.0748
0.798,-0.0403
0.799,0.1334
0.8,0.2292
0.801,0.3552
0.802,0.4394
0.803,0.5663
0.804,0.6517
0.805,0.6615
0.806,0.6204
0.807,0.5151
0.808,0.4907
0.809,0.3743
0.81,0.196
0.811,0.0194
0.812,-0.04
0.813,-0.1181
0.814,-0.1639
0.815,-0.2042
0.816,-0.2159
0.817,-0.0435
0.818,0.0025
0.819,0.0416
0.82,0.3363
0.821,0.3098
0.822,0.3907
0.823,0.5378
0.824,0.5875
0.825,0.6612
0.826,0.4493
0.827,0.4579
0.828,0.4165
0.829,0.3572
0.83,0.2169
0.831,0.0603
0.832,-0.0161
0.833,-0.0934
0.834,-0.1891
0.835,-0.3161
0.836,-0.1567
0.837,-0.0926
0.838,-0.1545
0.839,0.1549
0.84,0.301
0.841,0.3566
0.842,0.5041
0.843,0.5411
0.844,0.5867
0.845,0.6151
0.846,0.5175
0.847,0.4075
0.848,0.4682
0.849,0.2656
0.85,0.1444
0.851,0.0923
0.852,-0.1055
0.853,-0.1536
0.854,-0.2594
0.855,-0.2611
0.856,-0.2287
0.857,-0.0895
0.858,-0.0257
0.859,0.1835
0.86,0.246
0.861,0.3214
0.862,0.4532
0.863,0.4942
0.864,0.5128
0.865,0.5321
0.866,0.5271
0.867,0.6105
0.868,0.4507
0.869,0.2418
0.87,0.1576
0.871,-0.0055
0.872,-0.0493
0.873,-0.2235
0.874,-0.0958
0.875,-0.1974
0.876,-0.241
0.877,-0.0903
0.878,-0.0595
0.879,0.0542
0.88,0.1677
0.881,0.2987
0.882,0.3554
0.883,0.5597
0.884,0.5549
0.885,0.5707
0.886,0.527
0.887,0.5189
0.888,0.3799
0.889,0.2788
0.89,0.1106
0.891,0.0345
0.892,-0.1497
0.893,-0.1571
0.894,-0.2125
0.895,-0.2878
0.896,-0.2702
0.897,-0.1107
0.898,-0.1241
0.899,-0.021
0.9,0.265
0.901,0.2443
0.902,0.4372
0.903,0.4265
0.904,0.5248
0.905,0.4058
0.906,0.4999
0.907,0.3951
0.908,0.3179
0.909,0.1935
0.91,0.0979
0.911,-0.0598
0.912,-0.088
0.913,-0.2189
0.914,-0.2207
0.915,-0.2127
0.916,-0.2268
0.917,-0.193
0.918,-0.1112
0.919,-0.0547
0.92,0.0296
0.921,0.1998
0.922,0.4053
0.923,0.3587
0.924,0.6023
0.925,0.5037
0.926,0.5
0.927,0.3816
0.928,0.3883
0.929,0.2313
0.93,0.1508
0.931,-0.0971
0.932,-0.1024
0.933,-0.206
0.934,-0.3353
0.935,-0.3437
0.936,-0.1852
0.937,-0.221
0.938,-0.2139
0.939,-0.0498
0.94,0.1563
0.941,0.2578
0.942,0.343
0.943,0.4095
0.944,0.4771
0.945,0.4502
0.946,0.5478
0.947,0.4005
0.948,0.355
0.949,0.2489
0.95,0.1024
0.951,-0.0366
0.952,-0.1759
0.953,-0.1611
0.954,-0.3067
0.955,-0.3143
0.956,-0.1937
0.957,-0.2555
0.958,-0.1137
0.959,0.0583
0.96,0.149
0.961,0.1208
0.962,0.311
0.963,0.4034
0.964,0.5435
0.965,0.4545
0.966,0.4805
0.967,0.4322
0.968,0.3446
0.969,0.1573
0.97,0.0937
0.971,0.03
0.972,-0.2079
0.973,-0.1677
0.974,-0.315
0.975,-0.3097
0.976,-0.3554
0.977,-0.2496
0.978,-0.0625
0.979,-0.0135
0.98,0.1245
0.981,0.2706
0.982,0.3621
0.983,0.3956
0.984,0.504
0.985,0.4741
0.986,0.4366
0.987,0.4021
0.988,0.2606
0.989,0.18
0.99,-0.0456
0.991,-0.0309
0.992,-0.2174
0.993,-0.2007
0.994,-0.2859
0.995,-0.2722
0.996,-0.327
0.997,-0.3529
0.998,-0.1604
0.999,0.0483
1.0,0.0798
1.001,0.2898
1.002,0.2643
1.003,0.3431
1.004,0.377
1.005,0.4989
1.006,0.3696
1.007,0.3904
1.008,0.3234
1.009,0.1943
1.01,0.0562
1.011,-0.1032
1.012,-0.2432
1.013,-0.2758
1.014,-0.3154
1.015,-0.2874
1.016,-0.4033
1.017,-0.2529
1.018,-0.2491
1.019,-0.1374
1.02,0.0847
1.021,0.185
1.022,0.2497
1.023,0.3558
1.024,0.3775
1.025,0.4598
1.026,0.3507
1.027,0.404
1.028,0.2272
1.029,0.1042
1.03,0.0317
1.031,-0.1937
1.032,-0.3201
1.033,-0.3794
1.034,-0.3172
1.035,-0.376
1.036,-0.3508
1.037,-0.4476
1.038,-0.1098
1.039,-0.1299
1.04,0.0107
1.041,0.1949
1.042,0.2454
1.043,0.38
1.044,0.3952
1.045,0.4968
1.046,0.3484
1.047,0.3098
1.048,0.243
1.049,0.092
1.05,0.1374
1.051,-0.0372
1.052,-0.2777
1.053,-0.3394
1.054,-0.3772
1.055,-0.3749
1.056,-0.4075
1.057,-0.2232
1.058,-0.2234
1.059,-0.0149
1.06,0.1004
1.061,0.1275
1.062,0.2364
1.063,0.3469
1.064,0.4089
1.065,0.3486
1.066,0.3104
1.067,0.2516
1.068,0.2884
1.069,0.0336
1.07,-0.0122
1.071,-0.083
1.072,-0.2358
1.073,-0.3225
1.074,-0.3554
1.075,-0.2998
1.076,-0.399
1.077,-0.2702
1.078,-0.1881
1.079,-0.1416
1.08,-0.0127
1.081,0.1856
1.082,0.2327
1.083,0.2915
1.084,0.2996
1.085,0.3646
1.086,0.3257
1.087,0.2826
1.088,0.19
1.089,0.0105
1.09,-0.0675
1.091,-0.2617
1.092,-0.3358
1.093,-0.3715
1.094,-0.4151
1.095,-0.4042
1.096,-0.3728
1.097,-0.4365
1.098,-0.2789
1.099,-0.2027
1.1,0.0646
1.101,0.1383
1.102,0.1766
1.103,0.2143
1.104,0.297
1.105,0.2942
1.106,0.3338
1.107,0.1916
1.108,0.1536
1.109,0.109
1.11,-0.104
1.111,-0.0873
1.112,-0.2715
1.113,-0.3096
1.114,-0.4946
1.115,-0.5086
1.116,-0.4353
1.117,-0.3178
1.118,-0.2763
1.119,-0.1815
1.12,-0.039
1.121,0.1134
1.122,0.1933
1.123,0.268
1.124,0.3948
1.125,0.3452
1.126,0.3304
1.127,0.2648
1.128,0.1564
1.129,0.047
1.13,-0.1129
1.131,-0.1914
1.132,-0.2928
1.133,-0.2975
1.134,-0.4398
1.135,-0.4335
1.136,-0.4019
1.137,-0.3846
1.138,-0.266
1.139,-0.1862
1.14,0.0276
1.141,0.0684
1.142,0.238
1.143,0.3749
1.144,0.3794
1.145,0.3554
1.146,0.2668
1.147,0.229
1.148,0.0875
1.149,0.0407
1.15,-0.1042
1.151,-0.2098
1.152,-0.3906
1.153,-0.4383
1.154,-0.4689
1.155,-0.5194
1.156,-0.431
1.157,-0.4031
1.158,-0.3241
1.159,-0.1728
1.16,-0.0113
1.161,0.1714
1.162,0.1415
1.163,0.1829
1.164,0.234
1.165,0.2981
1.166,0.2657
1.167,0.2009
1.168,0.0982
1.169,0.1246
1.17,-0.127
1.171,-0.1953
1.172,-0.3441
1.173,-0.4034
1.174,-0.4536
1.175,-0.4843
1.176,-0.4298
1.177,-0.3941
1.178,-0.2789
1.179,-0.1643
1.18,-0.054
1.181,0.1782
1.182,0.2117
1.183,0.2298
1.184,0.2609
1.185,0.3764
1.186,0.4003
1.187,0.209
1.188,0.1426
1.189,-0.0343
1.19,-0.124
1.191,-0.1671
1.192,-0.3166
1.193,-0.4824
1.194,-0.4596
1.195,-0.5654
1.196,-0.5197
1.197,-0.4952
1.198,-0.3184
1.199,-0.2106
1.2,-0.0194
1.201,0.0777
1.202,0.0835
1.203,0.2384
1.204,0.2495
1.205,0.3036
1.206,0.2831
1.207,0.2603
1.208,0.0813
1.209,-0.0105
1.21,-0.1768
1.211,-0.2357
1.212,-0.3168
1.213,-0.5516
1.214,-0.594
1.215,-0.5091
1.216,-0.43
1.217,-0.438
1.218,-0.3512
1.219,-0.183
1.22,-0.1017
1.221,0.0048
1.222,0.0851
1.223,0.2351
1.224,0.1812
1.225,0.2901
1.226,0.2121
1.227,0.2975
1.228,0.0763
1.229,0.0129
1.23,-0.1653
1.231,-0.2769
1.232,-0.3482
1.233,-0.4567
1.234,-0.5717
1.235,-0.5195
1.236,-0.4934
1.237,-0.4099
1.238,-0.3359
1.239,-0.2382
1.24,-0.0837
1.241,0.0754
1.242,0.0527
1.243,0.1914
1.244,0.252
1.245,0.296
1.246,0.1532
1.247,0.1045
1.248,0.0871
1.249,0.0482
1.25,-0.1815
1.251,-0.3133
1.252,-0.4803
1.253,-0.4796
1.254,-0.5613
1.255,-0.496
1.256,-0.5041
1.257,-0.3989
1.258,-0.371
1.259,-0.3069
1.26,-0.1387
1.261,-0.0884
1.262,0.1125
1.263,0.1222
1.264,0.2287
1.265,0.1643
1.266,0.3187
1.267,0.1341
1.268,0.041
1.269,-0.1042
1.27,-0.1039
1.271,-0.2635
1.272,-0.3643
1.273,-0.4455
1.274,-0.5275
1.275,-0.4928
1.276,-0.4868
1.277,-0.3851
1.278,-0.4201
1.279,-0.195
1.28,-0.2328
1.281,0.0259
1.282,0.0295
1.283,0.1015
1.284,0.186
1.285,0.1942
1.286,0.1329
1.287,0.1553
1.288,0.0307
1.289,-0.1268
1.29,-0.1421
1.291,-0.2486
1.292,-0.5008
1.293,-0.5133
1.294,-0.5676
1.295,-0.5942
1.296,-0.5977
1.297,-0.4375
1.298,-0.3072
1.299,-0.2362
1.3,-0.229
1.301,-0.1793
1.302,0.1197
1.303,0.1925
1.304,0.1809
1.305,0.2774
1.306,0.2755
1.307,0.0961
1.308,-0.0493
1.309,-0.1819
1.31,-0.1365
1.311,-0.2997
1.312,-0.4218
1.313,-0.5954
1.314,-0.5227
1.315,-0.6112
1.316,-0.6078
1.317,-0.4182
1.318,-0.4466
1.319,-0.3276
1.32,-0.1959
1.321,-0.0986
1.322,0.0514
1.323,0.0826
1.324,0.1827
1.325,0.1756
1.326,0.1475
1.327,0.1106
1.328,0.0003
1.329,-0.0474
1.33,-0.2124
1.331,-0.4227
1.332,-0.5021
1.333,-0.5173
1.334,-0.5137
1.335,-0.5172
1.336,-0.575
1.337,-0.5562
1.338,-0.3651
1.339,-0.2873
1.34,-0.2454
1.341,-0.0181
1.342,0.0319
1.343,0.2358
1.344,0.1175
1.345,0.0865
1.346,0.0653
1.347,0.0963
1.348,0.1031
1.349,-0.1037
1.35,-0.17
1.351,-0.3547
1.352,-0.4777
1.353,-0.5228
1.354,-0.6095
1.355,-0.5651
1.356,-0.5539
1.357,-0.5354
1.358,-0.4431
1.359,-0.3465
1.36,-0.1853
1.361,-0.0504
1.362,0.0329
1.363,0.1146
1.364,0.1354
1.365,0.2296
1.366,0.0899
1.367,0.2081
1.368,-0.0264
1.369,-0.1538
1.37,-0.174
1.371,-0.3231
1.372,-0.4625
1.373,-0.5283
1.374,-0.5953
1.375,-0.5306
1.376,-0.5651
1.377,-0.4832
1.378,-0.47
1.379,-0.3663
1.38,-0.192
1.381,-0.0501
1.382,0.0397
1.383,0.1282
1.384,0.189
1.385,0.2101
1.386,0.2086
1.387,0.1292
1.388,0.0462
1.389,-0.0907
1.39,-0.2779
1.391,-0.3208
1.392,-0.5018
1.393,-0.6143
1.394,-0.5823
1.395,-0.5675
1.396,-0.5995
1.397,-0.4564
1.398,-0.4456
1.399,-0.3853
1.4,-0.1728
1.401,-0.0833
1.402,0.0135
1.403,0.1365
1.404,0.1957
1.405,0.2556
1.406,0.2396
1.407,0.1433
1.408,-0.0071
1.409,-0.1602
1.41,-0.2139
1.411,-0.334
1.412,-0.4957
1.413,-0.5857
1.414,-0.5155
1.415,-0.5688
1.416,-0.6306
1.417,-0.5779
1.418,-0.385
1.419,-0.3182
1.42,-0.201
1.421,-0.0062
1.422,0.0255
1.423,0.1085
1.424,0.1671
1.425,0.1742
1.426,0.1048
1.427,0.1372
1.428,0.0202
1.429,-0.1193
1.43,-0.3116
1.431,-0.3535
1.432,-0.4524
1.433,-0.5667
1.434,-0.6105
1.435,-0.6084
1.436,-0.5434
1.437,-0.5935
1.438,-0.4321
1.439,-0.366
1.44,-0.2011
1.441,-0.0563
1.442,-0.0255
1.443,0.1066
1.444,0.2184
1.445,0.1748
1.446,0.1644
1.447,0.0502
1.448,-0.0409
1.449,-0.0003
1.45,-0.1811
1.451,-0.4133
1.452,-0.4214
1.453,-0.5949
1.454,-0.6286
1.455,-0.6683
1.456,-0.6031
1.457,-0.5685
1.458,-0.4036
1.459,-0.3895
1.46,-0.2231
1.461,-0.0235
1.462,-0.0688
1.463,0.1099
1.464,0.1913
1.465,0.1527
1.466,0.1167
1.467,0.1085
1.468,0.0496
1.469,-0.2507
1.47,-0.3254
1.471,-0.4097
1.472,-0.4505
1.473,-0.4727
1.474,-0.5874
1.475,-0.6442
1.476,-0.6343
1.477,-0.5347
1.478,-0.479
1.479,-0.3017
1.48,-0.2366
1.481,-0.1358
1.482,0.0002
1.483,0.188
1.484,0.1547
1.485,0.1026
1.486,0.1593
1.487,0.056
1.488,0.045
1.489,-0.0832
1.49,-0.2014
1.491,-0.3159
1.492,-0.4643
1.493,-0.5421
1.494,-0.5755
1.495,-0.4645
1.496,-0.5614
1.497,-0.6302
1.498,-0.4903
1.499,-0.3499
1.5,-0.1245
1.501,-0.1242
1.502,0.1164
1.503,0.1666
1.504,0.1046
1.505,0.1679
1.506,0.1313
1.507,0.0161
1.508,-0.0091
1.509,-0.0372
1.51,-0.2128
1.511,-0.334
1.512,-0.4898
1.513,-0.5594
1.514,-0.4683
1.515,-0.5686
1.516,-0.603
1.517,-0.5865
1.518,-0.4645
1.519,-0.4005
1.52,-0.1448
1.521,-0.1081
1.522,0.0672
1.523,0.0334
1.524,0.169
1.525,0.1731
1.526,0.2276
1.527,0.0727
1.528,0.1333
1.529,-0.1112
1.53,-0.2377
1.531,-0.2941
1.532,-0.4324
1.533,-0.7201
1.534,-0.5164
1.535,-0.6143
1.536,-0.5942
1.537,-0.5616
1.538,-0.3594
1.539,-0.3571
1.54,-0.2377
1.541,-0.0898
1.542,0.0288
1.543,0.0868
1.544,0.1998
1.545,0.1695
1.546,0.2054
1.547,0.0803
1.548,0.0601
1.549,-0.122
1.55,-0.2928
1.551,-0.425
1.552,-0.4936
1.553,-0.4388
1.554,-0.5628
1.555,-0.5874
1.556,-0.6132
1.557,-0.398
1.558,-0.4071
1.559,-0.3865
1.56,-0.2609
1.561,-0.1117
1.562,0.0075
1.563,0.1113
1.564,0.113
1.565,0.242
1.566,0.2609
1.567,0.0394
1.568,0.0625
1.569,-0.1714
1.57,-0.2128
1.571,-0.3879
1.572,-0.4115
1.573,-0.5572
1.574,-0.6833
1.575,-0.5633
1.576,-0.5723
1.577,-0.5213
1.578,-0.4385
1.579,-0.3514
1.58,-0.1326
1.581,-0.1345
1.582,0.1305
1.583,0.0818
1.584,0.1343
1.585,0.2345
1.586,0.2303
1.587,0.1267
1.588,0.0627
1.589,-0.0933
1.59,-0.2634
1.591,-0.2942
1.592,-0.4409
1.593,-0.5594
1.594,-0.6092
1.595,-0.6416
1.596,-0.5549
1.597,-0.4378
1.598,-0.3977
1.599,-0.3498
1.6,-0.1197
1.601,-0.0555
1.602,0.0761
1.603,0.1372
1.604,0.1935
1.605,0.121
1.606,0.2735
1.607,0.2051
1.608,-0.0761
1.609,0.0356
1.61,-0.294
1.611,-0.3809
1.612,-0.3998
1.613,-0.501
1.614,-0.6682
1.615,-0.5848
1.616,-0.6661
1.617,-0.4537
1.618,-0.4329
1.619,-0.1604
1.62,-0.1888
1.621,-0.0484
1.622,0.1013
1.623,0.1034
1.624,0.2272
1.625,0.2738
1.626,0.2193
1.627,0.1443
1.628,0.0879
1.629,-0.1736
1.63,-0.1912
1.631,-0.292
1.632,-0.323
1.633,-0.5653
1.634,-0.6474
1.635,-0.5756
1.636,-0.6667
1.637,-0.5185
1.638,-0.3598
1.639,-0.2892
1.64,-0.2196
1.641,-0.034
1.642,0.0595
1.643,0.1673
1.644,0.1396
1.645,0.2658
1.646,0.1126
1.647,0.1152
1.648,0.0441
1.649,-0.0159
1.65,-0.2277
1.651,-0.2982
1.652,-0.4671
1.653,-0.6158
1.654,-0.568
1.655,-0.5556
1.656,-0.5999
1.657,-0.5026
1.658,-0.4289
1.659,-0.296
1.66,-0.1437
1.661,-0.0632
1.662,0.0751
1.663,0.0993
1.664,0.2165
1.665,0.2409
1.666,0.2328
1.667,0.1297
1.668,0.1084
1.669,0.005
1.67,-0.2008
1.671,-0.2856
1.672,-0.3533
1.673,-0.5312
1.674,-0.6531
1.675,-0.511
1.676,-0.5426
1.677,-0.3894
1.678,-0.3723
1.679,-0.3137
1.68,-0.1509
1.681,-0.0178
1.682,0.0881
1.683,0.1361
1.684,0.2614
1.685,0.1841
1.686,0.1981
1.687,0.2028
1.688,-0.0082
1.689,-0.0693
1.69,-0.1538
1.691,-0.3
1.692,-0.4029
1.693,-0.4358
1.694,-0.5247
1.695,-0.5142
1.696,-0.5848
1.697,-0.4797
1.698,-0.2965
1.699,-0.2038
1.7,-0.0636
1.701,-0.0194
1.702,0.1725
1.703,0.2456
1.704,0.1914
1.705,0.2315
1.706,0.1856
1.707,0.2015
1.708,0.0134
1.709,-0.0689
1.71,-0.2438
1.711,-0.3161
1.712,-0.3779
1.713,-0.4732
1.714,-0.5207
1.715,-0.517
1.716,-0.4801
1.717,-0.4465
1.718,-0.3847
1.719,-0.3733
1.72,-0.0907
1.721,0.0419
1.722,0.1129
1.723,0.1097
1.724,0.1835
1.725,0.1687
1.726,0.2691
1.727,0.2017
1.728,0.1512
1.729,-0.0924
1.73,-0.144
1.731,-0.2611
1.732,-0.4
1.733,-0.3599
1.734,-0.5233
1.735,-0.4502
1.736,-0.4962
1.737,-0.3737
1.738,-0.3268
1.739,-0.2842
1.74,-0.1812
1.741,-0.0067
1.742,0.0952
1.743,0.1398
1.744,0.1802
1.745,0.2761
1.746,0.3298
1.747,0.192
1.748,0.104
1.749,0.0272
1.75,-0.1797
1.751,-0.2007
1.752,-0.3054
1.753,-0.5122
1.754,-0.4817
1.755,-0.5538
1.756,-0.5251
1.757,-0.3129
1.758,-0.3436
1.759,-0.1779
1.76,-0.0582
1.761,0.0413
1.762,0.0598
1.763,0.2034
1.764,0.175
1.765,0.2798
1.766,0.2752
1.767,0.2435
1.768,0.1044
1.769,0.0625
1.77,-0.1491
1.771,-0.1684
1.772,-0.311
1.773,-0.5014
1.774,-0.4802
1.775,-0.4262
1.776,-0.4915
1.777,-0.4356
1.778,-0.3742
1.779,-0.2043
1.78,-0.0618
1.781,0.0015
1.782,0.159
1.783,0.2489
1.784,0.2851
1.785,0.285
1.786,0.2928
1.787,0.2068
1.788,0.1941
1.789,0.0139
1.79,-0.1143
1.791,-0.2037
1.792,-0.3008
1.793,-0.4215
1.794,-0.4703
1.795,-0.5121
1.796,-0.4291
1.797,-0.42
1.798,-0.3801
1.799,-0.2354
1.8,-0.0106
1.801,0.0724
1.802,0.1901
1.803,0.2485
1.804,0.3064
1.805,0.2572
1.806,0.2555
1.807,0.2148
1.808,0.1504
1.809,0.0752
1.81,-0.1858
1.811,-0.186
1.812,-0.3932
1.813,-0.3529
1.814,-0.4655
1.815,-0.4815
1.816,-0.3714
1.817,-0.4016
1.818,-0.3747
1.819,-0.183
1.82,-0.0735
1.821,0.1022
1.822,0.2349
1.823,0.3052
1.824,0.3026
1.825,0.3727
1.826,0.3002
1.827,0.2326
1.828,0.216
1.829,-0.0046
1.83,-0.082
1.831,-0.1622
1.832,-0.2852
1.833,-0.3837
1.834,-0.3857
1.835,-0.5092
1.836,-0.3943
1.837,-0.3528
1.838,-0.1983
1.839,-0.2087
1.84,-0.0688
1.841,0.1295
1.842,0.1826
1.843,0.4012
1.844,0.312
1.845,0.3633
1.846,0.2722
1.847,0.3187
1.848,0.2179
1.849,0.0677
1.85,-0.0019
1.851,-0.1198
1.852,-0.2989
1.853,-0.462
1.854,-0.5025
1.855,-0.4534
1.856,-0.4438
1.857,-0.3384
1.858,-0.2647
1.859,-0.1435
1.86,0.0075
1.861,0.1261
1.862,0.2292
1.863,0.2448
1.864,0.3729
1.865,0.3822
1.866,0.3315
1.867,0.2779
1.868,0.1702
1.869,0.0836
1.87,-0.063
1.871,-0.0593
1.872,-0.2579
1.873,-0.3746
1.874,-0.4073
1.875,-0.4852
1.876,-0.3153
1.877,-0.2951
1.878,-0.2708
1.879,-0.0705
1.88,0.0808
1.881,0.1359
1.882,0.2198
1.883,0.2546
1.884,0.3107
1.885,0.314
1.886,0.2994
1.887,0.3036
1.888,0.1452
1.889,0.1187
1.89,-0.0734
1.891,-0.1527
1.892,-0.2841
1.893,-0.4309
1.894,-0.411
1.895,-0.4284
1.896,-0.4166
1.897,-0.3318
1.898,-0.2154
1.899,-0.1639
1.9,0.0173
1.901,0.2105
1.902,0.2651
1.903,0.3282
1.904,0.3555
1.905,0.4215
1.906,0.3928
1.907,0.3707
1.908,0.2558
1.909,0.0783
1.91,-0.0051
1.911,-0.2686
1.912,-0.2313
1.913,-0.2932
1.914,-0.3169
1.915,-0.3924
1.916,-0.3512
1.917,-0.3355
1.918,-0.2735
1.919,-0.0893
1.92,0.06
1.921,0.1433
1.922,0.2245
1.923,0.3575
1.924,0.399
1.925,0.4407
1.926,0.5
1.927,0.2607
1.928,0.239
1.929,0.102
1.93,0.0406
1.931,-0.0895
1.932,-0.1742
1.933,-0.3763
1.934,-0.4158
1.935,-0.3559
1.936,-0.3366
1.937,-0.2918
1.938,-0.1717
1.939,-0.2189
1.94,0.1024
1.941,0.1218
1.942,0.3131
1.943,0.3641
1.944,0.379
1.945,0.4834
1.946,0.407
1.947,0.3016
1.948,0.2865
1.949,0.1566
1.95,0.0331
1.951,-0.0075
1.952,-0.2296
1.953,-0.3357
1.954,-0.2108
1.955,-0.3373
1.956,-0.3286
1.957,-0.4157
1.958,-0.2523
1.959,-0.05
1.96,-0.0773
1.961,0.204
1.962,0.2684
1.963,0.4811
1.964,0.4698
1.965,0.5205
1.966,0.4616
1.967,0.3967
1.968,0.1903
1.969,0.2704
1.97,-0.0089
1.971,-0.0757
1.972,-0.2746
1.973,-0.2837
1.974,-0.3013
1.975,-0.3075
1.976,-0.3605
1.977,-0.2785
1.978,-0.1646
1.979,-0.0985
1.98,0.0113
1.981,0.2335
1.982,0.3263
1.983,0.4534
1.984,0.4219
1.985,0.5365
1.986,0.4393
1.987,0.3669
1.988,0.3301
1.989,0.158
1.99,0.0313
1.991,-0.013
1.992,-0.1603
1.993,-0.2202
1.994,-0.2906
1.995,-0.3767
1.996,-0.2922
1.997,-0.2306
1.998,-0.0937
1.999,0.0066
2.0,0.1366
2.001,0.259
2.002,0.3496
2.003,0.4803
2.004,0.5203
2.005,0.5364
2.006,0.4375
2.007,0.428
2.008,0.3163
2.009,0.2653
2.01,0.0551
2.011,0.0048
2.012,-0.1754
2.013,-0.2713
2.014,-0.2591
2.015,-0.3059
2.016,-0.2589
2.017,-0.1577
2.018,-0.0527
2.019,0.019
2.02,0.2297
2.021,0.2242
2.022,0.4111
2.023,0.4452
2.024,0.5429
2.025,0.6377
2.026,0.4278
2.027,0.3931
2.028,0.3087
2.029,0.1922
2.03,0.0972
2.031,-0.0414
2.032,-0.1913
2.033,-0.2224
2.034,-0.317
2.035,-0.3739
2.036,-0.2226
2.037,-0.2108
2.038,-0.0342
2.039,0.0995
2.04,0.1706
2.041,0.2954
2.042,0.4205
2.043,0.4271
2.044,0.6369
2.045,0.4728
2.046,0.5897
2.047,0.3476
2.048,0.2861
2.049,0.1964
2.05,0.1161
2.051,-0.0483
2.052,-0.1125
2.053,-0.1939
2.054,-0.296
2.055,-0.2395
2.056,-0.2414
2.057,-0.2124
2.058,0.0165
2.059,0.057
2.06,0.1348
2.061,0.3026
2.062,0.328
2.063,0.4504
2.064,0.5083
2.065,0.5373
2.066,0.4306
2.067,0.4549
2.068,0.3361
2.069,0.2635
2.07,0.1199
2.071,-0.1052
2.072,-0.1319
2.073,-0.1236
2.074,-0.1528
2.075,-0.2653
2.076,-0.2261
2.077,-0.0886
2.078,-0.0199
2.079,0.1431
2.08,0.2302
2.081,0.3061
2.082,0.4065
2.083,0.4676
2.084,0.5486
2.085,0.4201
2.086,0.4975
2.087,0.4941
2.088,0.4343
2.089,0.3447
2.09,0.2457
2.091,0.0963
2.092,-0.0689
2.093,-0.1666
2.094,-0.252
2.095,-0.288
2.096,-0.2165
2.097,-0.1606
2.098,0.005
2.099,0.0832
2.1,0.221
2.101,0.3803
2.102,0.3407
2.103,0.5916
2.104,0.5285
2.105,0.5559
2.106,0.5354
2.107,0.4872
2.108,0.5281
2.109,0.3064
2.11,0.1676
2.111,-0.011
2.112,-0.0191
2.113,-0.2289
2.114,-0.1
2.115,-0.2277
2.116,-0.1503
2.117,-0.0923
2.118,0.1441
2.119,0.0513
2.12,0.2827
2.121,0.357
2.122,0.4325
2.123,0.5754
2.124,0.5988
2.125,0.637
2.126,0.554
2.127,0.5559
2.128,0.4134
2.129,0.263
2.13,0.1758
2.131,0.0003
2.132,-0.0408
2.133,-0.2054
2.134,-0.1743
2.135,-0.1615
2.136,-0.0521
2.137,-0.1938
2.138,-0.2033
2.139,0.1333
2.14,0.1827
2.141,0.4005
2.142,0.5893
2.143,0.6068
2.144,0.7122
2.145,0.4751
2.146,0.4834
2.147,0.4916
2.148,0.1949
2.149,0.2862
2.15,0.3918
2.151,0.0787
2.152,-0.0362
2.153,-0.1727
2.154,-0.2845
2.155,0.0206
2.156,-0.0959
2.157,-0.0654
2.158,-0.0474
2.159,0.0525
2.16,0.3813
2.161,0.3531
2.162,0.3305
2.163,0.7638
2.164,0.7354
2.165,0.7642
2.166,0.5547
2.167,0.5622
2.168,0.4572
2.169,0.0916
2.17,0.1459
2.171,0.0875
2.172,0.101
2.173,-0.1007
2.174,-0.1322
2.175,-0.2702
2.176,-0.1805
2.177,-0.0803
2.178,0.2048
2.179,0.2482
2.18,0.2195
2.181,0.7244
2.182,0.4966
2.183,0.4439
2.184,0.516
2.185,0.4352
2.186,0.4401
2.187,0.5062
2.188,0.3681
2.189,0.501
2.19,0.3183
2.191,0.1969
2.192,-0.0336
2.193,0.0264
2.194,-0.1936
2.195,-0.0736
2.196,0.0724
2.197,-0.0784
2.198,0.157
2.199,0.385
2.2,0.3765
2.201,0.4253
2.202,0.3857
2.203,0.6371
2.204,0.8212
2.205,0.8031
2.206,0.7673
2.207,0.8041
2.208,0.6126
2.209,0.2284
2.21,-0.1131
2.211,0.2579
2.212,0.0928
2.213,-0.0383
2.214,-0.1276
2.215,-0.4031
2.216,0.1366
2.217,0.0581
2.218,0.428
2.219,0.4569
2.22,0.6038
2.221,0.6724
2.222,0.2932
2.223,0.5466
2.224,0.74
2.225,0.4734
2.226,1.107
2.227,0.3191
2.228,0.7022
2.229,0.5721
2.23,0.1086
2.231,0.0995
2.232,0.0602
2.233,0.2744
2.234,0.0765
2.235,-0.1486
2.236,0.1315
2.237,0.1365
2.238,0.1037
2.239,0.5834
2.24,0.515
2.241,0.6677
2.242,0.2324
2.243,0.8589
2.244,1.131
2.245,0.4792
2.246,0.4511
2.247,0.6468
2.248,0.2533
2.249,0.5227
2.25,0.0607
2.251,-0.0492
2.252,0.0618
2.253,0.1673
2.254,0.0096
2.255,-0.2649
2.256,-0.1525
2.257,0.4121
2.258,0.1495
2.259,-0.0138
2.26,0.5384
2.261,0.387
2.262,0.6337
2.263,0.5598
2.264,0.2511
2.265,0.7551
2.266,0.5125
2.267,0.8991
2.268,0.5035
2.269,0.0736
2.27,0.3404
2.271,0.2645
2.272,-0.3489
2.273,-0.1797
2.274,-0.428
2.275,-0.1374
2.276,0.1196
2.277,-0.109
2.278,0.3084
2.279,0.1737
2.28,0.3974
2.281,0.4693
2.282,0.7039
2.283,0.5341
2.284,0.8801
2.285,0.3843
2.286,0.6025
2.287,0.373
2.288,0.0028
2.289,0.7439
2.29,0.5961
2.291,0.1135
2.292,0.1556
2.293,0.3094
2.294,-0.0646
2.295,0.3678
2.296,0.081
2.297,0.6154
2.298,0.5782
2.299,0.5297
2.3,0.5113
2.301,0.4946
2.302,0.7953
2.303,1.1078
2.304,1.1741
2.305,1.3933
2.306,0.356
2.307,0.7805
2.308,-0.3113
2.309,0.3371
2.31,0.6682
2.311,0.4079
2.312,0.5741
2.313,-0.1429
2.314,-0.1036
2.315,-0.0439
2.316,-0.584
2.317,-0.591
2.318,0.3349
2.319,0.5516
2.32,0.721
2.321,0.6159
2.322,0.3449
2.323,0.232
2.324,0.7879
2.325,0.7587
2.326,0.7029
2.327,0.4397
2.328,0.2193
2.329,0.634
2.33,-0.0583
2.331,-0.3705
2.332,0.2267
2.333,-0.484
2.334,-0.2051
2.335,-0.2928
2.336,-0.689
2.337,0.2011
2.338,0.4884
2.339,0.6278
2.34,0.9865
2.341,0.3181
2.342,0.8258
2.343,0.7067
2.344,0.7289
2.345,0.4047
2.346,0.1177
2.347,0.1495
2.348,0.9138
2.349,0.8934
2.35,0.6429
2.351,0.13
2.352,-0.0195
2.353,-0.3305
2.354,0.0917
2.355,-0.5246
2.356,-0.1588
2.357,0.9339
2.358,0.5374
2.359,-0.1024
2.36,0.8866
2.361,0.3788
2.362,0.8294
2.363,1.8322
2.364,1.4304
2.365,0.9626
2.366,0.9613
2.367,0.9828
2.368,1.3622
2.369,0.6086
2.37,0.8965
2.371,0.4749
2.372,-0.1982
2.373,0.1334
2.374,1.0087
2.375,-0.9566
2.376,-0.128
2.377,-0.2985
2.378,0.6714
2.379,0.1277
2.38,-0.0875
2.381,0.0374
2.382,1.1832
2.383,0.841
2.384,0.3704
2.385,1.3457
2.386,1.1888
2.387,0.6912
2.388,0.7843
2.389,0.1473
2.39,0.1948
2.391,0.0532
2.392,0.502
2.393,-0.3208
2.394,0.3031
2.395,0.9431
2.396,0.1154
2.397,0.0843
2.398,0.3876
2.399,-0.4213
2.4,0.2576
2.401,0.98
2.402,0.9083
2.403,0.544
2.404,-0.2005
2.405,0.9675
2.406,0.0242
2.407,0.9289
2.408,1.1122
2.409,0.7735
2.41,0.2086
2.411,0.0244
2.412,0.962
2.413,0.4439
2.414,-0.1808
2.415,1.0587
2.416,-1.3108
2.417,0.1321
2.418,-0.1401
2.419,0.132
2.42,0.066
2.421,0.7002
2.422,0.4978
2.423,0.109
2.424,0.4357
2.425,0.8983
2.426,0.9919
2.427,-0.6088
2.428,0.406
2.429,0.9938
2.43,0.597
2.431,0.1472
2.432,0.3451
2.433,-0.7853
2.434,0.1059
2.435,0.0034
2.436,1.1666
2.437,-0.2895
2.438,1.2807
2.439,0.7928
2.44,0.4075
2.441,0.4133
2.442,-0.3798
2.443,0.5854
2.444,1.1986
2.445,0.7307
2.446,0.4062
2.447,0.2462
2.448,-0.0981
2.449,0.1828
2.45,1.2121
2.451,-0.4827
2.452,0.2109
2.453,-0.9005
2.454,1.8054
2.455,0.4384
2.456,1.1158
2.457,-0.1139
2.458,1.3095
2.459,0.2936
2.46,0.3822
2.461,0.1938
2.462,0.2894
2.463,0.7565
2.464,0.9537
2.465,0.5596
2.466,1.2302
2.467,0.0508
2.468,-0.0654
2.469,0.553
2.47,0.4059
2.471,0.9144
2.472,-0.4591
2.473,-1.4006
2.474,0.5988
2.475,-0.5704
2.476,0.9011
2.477,-0.3889
2.478,-0.0471
2.479,-0.1013
2.48,-0.8198
2.481,0.114
2.482,0.3645
2.483,-0.8831
2.484,-0.0335
2.485,-0.4075
2.486,0.4305
2.487,1.5298
2.488,0.0997
2.489,-0.0919
2.49,1.2682
2.491,0.1421
2.492,0.5952
2.493,0.9333
2.494,0.6506
2.495,0.6508
2.496,0.762
2.497,-0.5951
2.498,2.2503
2.499,0.7954
2.5,-0.2164
2.501,0.9506
2.502,1.3376
2.503,1.2215
2.504,-0.2941
2.505,1.3185
2.506,0.5008
2.507,0.7714
2.508,1.0071
2.509,-0.0718
2.51,0.1956
2.511,1.3794
2.512,0.4804
2.513,0.4441
2.514,0.1229
2.515,0.8562
2.516,0.0338
2.517,0.3733
2.518,-0.0042
2.519,-0.0234
2.52,-0.0757
2.521,-0.0532
2.522,0.9983
2.523,1.6682
2.524,0.9574
2.525,0.0248
2.526,0.6176
2.527,0.4301
2.528,0.1626
2.529,-0.2827
2.53,1.2274
2.531,0.548
2.532,-0.3661
2.533,-0.5245
2.534,0.2963
2.535,-0.6859
2.536,-0.7222
2.537,1.6635
2.538,1.2704
2.539,1.1923
2.54,0.6884
2.541,0.9487
2.542,1.9878
2.543,1.2769
2.544,1.2799
2.545,0.7421
2.546,0.46
2.547,1.4686
2.548,1.0508
2.549,0.1377
2.55,-1.2245
2.551,0.0424
2.552,0.7675
2.553,-0.4109
2.554,0.4349
2.555,1.0174
2.556,2.2235
2.557,-0.5362
2.558,0.0947
2.559,1.102
2.56,0.9744
2.561,0.4271
2.562,0.0523
2.563,0.1263
2.564,-0.5341
2.565,1.2521
2.566,1.0406
2.567,1.8466
2.568,0.9945
2.569,-1.2868
2.57,1.5819
2.571,0.537
2.572,0.8591
2.573,-0.1477
2.574,-0.0548
2.575,1.8391
2.576,-1.2354
2.577,-0.0992
2.578,-1.1135
2.579,0.9058
2.58,1.1728
2.581,1.9809
2.582,-0.628
2.583,-0.3311
2.584,-0.1233
2.585,2.5402
2.586,0.3659
2.587,0.5231
2.588,1.1681
2.589,-0.889
2.59,1.3758
2.591,-0.0016
2.592,-0.6398
2.593,-1.8451
2.594,-1.0989
2.595,0.5203
2.596,2.0368
2.597,0.1439
2.598,-0.3357
2.599,0.7811
2.6,0.8828
2.601,-0.0683
2.602,-1.882
2.603,0.3365
2.604,0.8685
2.605,2.2603
2.606,0.7897
2.607,2.0057
2.608,1.1317
2.609,0.0177
2.61,2.1023
2.611,1.2106
2.612,-1.567
2.613,1.0351
2.614,1.4684
2.615,-0.4343
2.616,0.7933
2.617,0.4723
2.618,0.6702
2.619,-0.5554
2.62,-0.4188
2.621,0.4679
2.622,-1.1446
2.623,2.8288
2.624,0.8182
2.625,0.3836
2.626,1.3268
2.627,1.5956
2.628,-1.186
2.629,1.5305
2.63,1.4636
2.631,-0.9636
2.632,-0.0741
2.633,-0.277
2.634,-0.0652
2.635,-1.8567
2.636,-0.1512
2.637,0.7048
2.638,-1.7996
2.639,1.4117
2.64,1.9969
2.641,0.0026
2.642,-0.3135
2.643,-1.554
2.644,0.6984
2.645,1.884
2.646,0.9464
2.647,-0.0251
2.648,0.288
2.649,-0.465
2.65,1.4258
2.651,-0.3424
2.652,0.6345
2.653,-1.3276
2.654,0.6927
2.655,0.6049
2.656,1.1842
2.657,0.5489
2.658,-2.5797
2.659,-1.0847
2.66,1.2145
2.661,-0.6579
2.662,2.1823
2.663,0.614
2.664,0.2608
2.665,0.0728
2.666,0.4913
2.667,-0.7401
2.668,1.1656
2.669,1.5017
2.67,0.4021
2.671,1.5253
2.672,0.1215
2.673,1.3258
2.674,0.8186
2.675,0.6907
2.676,2.1614
2.677,0.0146
2.678,-1.7709
2.679,0.1836
2.68,-0.6121
2.681,-0.2866
2.682,-1.7551
2.683,-0.1658
2.684,-1.5767
2.685,2.0199
2.686,2.4131
2.687,0.7994
2.688,-1.3346
2.689,2.7371
2.69,1.3999
2.691,1.8841
2.692,1.3506
2.693,1.4956
2.694,-0.9571
2.695,-1.4291
2.696,-0.8856
2.697,-0.98
2.698,1.1952
2.699,0.5785
2.7,0.9916
2.701,-0.542
2.702,0.6386
2.703,0.6591
2.704,0.3181
2.705,0.4121
2.706,0.5939
2.707,2.7152
2.708,2.4825
2.709,-0.5874
2.71,-0.8782
2.711,1.3043
2.712,1.1968
2.713,-1.5628
2.714,-0.6962
2.715,-2.9712
2.716,-1.9389
2.717,2.0837
2.718,0.0537
2.719,0.2843
2.72,1.8143
2.721,0.4846
2.722,-1.1825
2.723,3.5638
2.724,-0.906
2.725,3.4353
2.726,1.7588
2.727,0.0095
2.728,0.6732
2.729,-0.1956
2.73,0.3503
2.731,-0.9677
2.732,-0.4097
2.733,1.6714
2.734,-1.004
2.735,0.5248
2.736,1.0529
2.737,-0.1367
2.738,-1.9966
2.739,-1.0896
2.74,1.4942
2.741,2.5047
2.742,1.5906
2.743,0.0231
2.744,0.4681
2.745,1.9988
2.746,-0.7375
2.747,-1.3534
2.748,-0.8305
2.749,2.0058
2.75,-1.2596
2.751,-0.5025
2.752,1.6935
2.753,0.6551
2.754,-0.8725
2.755,2.0023
2.756,-2.7007
2.757,-0.1241
2.758,-0.7258
2.759,-1.1209
2.76,1.7527
2.761,0.7578
2.762,0.8629
2.763,-0.0943
2.764,1.6641
2.765,1.2101
2.766,1.3279
2.767,-0.3672
2.768,1.8909
2.769,-0.4972
2.77,-0.591
2.771,0.7154
2.772,1.1455
2.773,0.6881
2.774,-0.3744
2.775,0.2247
2.776,-0.366
2.777,0.7441
2.778,-1.1807
2.779,0.2706
2.78,-0.4203
2.781,0.9467
2.782,2.3686
2.783,1.491
2.784,0.9455
2.785,1.292
2.786,0.6011
2.787,0.5112
2.788,0.0005
2.789,-0.1121
2.79,0.3992
2.791,-0.6245
2.792,-0.3233
2.793,0.9723
2.794,-0.1459
2.795,0.8383
2.796,-0.2994
2.797,0.2274
2.798,0.0108
2.799,-0.1076
2.8,0.0699
2.801,2.5282
2.802,0.3954
2.803,2.54
2.804,-0.2525
2.805,1.3243
2.806,-0.063
2.807,0.3589
2.808,2.0581
2.809,-0.0801
2.81,0.6361
2.811,2.7204
2.812,-0.3062
2.813,1.3143
2.814,1.3883
2.815,1.2176
2.816,0.3509
2.817,-1.9919
2.818,-1.9199
2.819,-1.2044
2.82,2.5188
2.821,-0.6704
2.822,0.0407
2.823,-1.1079
2.824,-0.8619
2.825,1.8733
2.826,0.1024
2.827,1.4609
2.828,-0.3424
2.829,-2.0494
2.83,-0.1487
2.831,-0.1956
2.832,-0.51
2.833,-2.1556
2.834,0.5965
2.835,-0.3769
2.836,-0.0866
2.837,-0.0019
2.838,1.6038
2.839,-3.0705
2.84,-2.2986
2.841,-0.0517
2.842,-0.1084
2.843,0.4298
2.844,1.5717
2.845,0.575
2.846,0.9132
2.847,-0.825
2.848,1.7746
2.849,-1.0152
2.85,1.4625
2.851,1.0667
2.852,0.8163
2.853,-2.3654
2.854,0.5223
2.855,1.8539
2.856,0.3359
2.857,1.3454
2.858,2.3042
2.859,0.5651
2.86,1.0893
2.861,-1.1832
2.862,1.7588
2.863,-0.6753
2.864,1.7619
2.865,1.2236
2.866,-0.9096
2.867,1.5648
2.868,0.1995
2.869,-0.79
2.87,2.2404
2.871,-0.3463
2.872,0.5505
2.873,0.8665
2.874,1.5955
2.875,-0.4789
2.876,-0.2079
2.877,-0.3912
2.878,-0.9801
2.879,2.3677
2.88,0.4164
2.881,-1.0648
2.882,-0.1133
2.883,-0.8595
2.884,-1.6552
2.885,-1.4792
2.886,-0.5024
2.887,1.8253
2.888,0.0911
2.889,-0.25
2.89,-1.0266
2.891,0.1203
2.892,-0.0033
2.893,0.6808
2.894,-0.5652
2.895,1.7804
2.896,2.3396
2.897,0.7911
2.898,-1.5702
2.899,0.8269
2.9,0.2402
2.901,1.0847
2.902,0.2102
2.903,1.2415
2.904,1.2852
2.905,2.8677
2.906,1.5828
2.907,0.7571
2.908,2.7221
2.909,-2.917
2.91,-2.1449
2.911,1.6687
2.912,0.4182
2.913,-0.1467
2.914,0.3311
2.915,-2.0047
2.916,-3.0904
2.917,0.3035
2.918,-0.5589
2.919,0.7807
2.92,0.645
2.921,-0.3944
2.922,0.1773
2.923,2.5553
2.924,2.5326
2.925,1.6593
2.926,-0.5807
2.927,0.6648
2.928,0.3652
2.929,0.219
2.93,-0.7018
2.931,1.5529
2.932,1.7965
2.933,-0.6554
2.934,1.3406
2.935,-0.9509
2.936,-0.4634
2.937,0.0769
2.938,-1.3822
2.939,2.6733
2.94,4.2447
2.941,0.6985
2.942,-0.3097
2.943,-1.8302
2.944,0.1951
2.945,0.3221
2.946,1.0123
2.947,0.9894
2.948,0.7643
2.949,-0.9223
2.95,0.5769
2.951,-2.2859
2.952,0.1882
2.953,0.6131
2.954,-1.1487
2.955,1.9678
2.956,-1.4571
2.957,1.3752
2.958,-0.2626
2.959,1.5728
2.96,1.2439
2.961,-0.9699
2.962,0.2215
2.963,0.5152
2.964,0.3122
2.965,0.5523
2.966,0.546
2.967,-2.269
2.968,1.0495
2.969,-0.7148
2.97,-1.5178
2.971,0.5491
2.972,-0.8589
2.973,-0.1281
2.974,-1.5887
2.975,1.513
2.976,0.2697
2.977,-0.088
2.978,-1.0497
2.979,0.0521
2.98,-0.3181
2.981,1.4753
2.982,1.0251
2.983,1.8118
2.984,-2.1835
2.985,-1.2914
2.986,-1.4221
2.987,-1.7897
2.988,1.8379
2.989,-0.1343
2.99,-0.8613
2.991,0.1104
2.992,-0.9801
2.993,-0.6186
2.994,-0.1685
2.995,2.3942
2.996,0.7798
2.997,-2.6722
2.998,0.2518
2.999,-1.2235
3.0,-0.5361
3.001,0.188
3.002,3.7955
3.003,-1.1053
3.004,1.5054
3.005,0.9507
3.006,0.588
3.007,-0.8393
3.008,0.2461
3.009,1.1409
3.01,4.2893
3.011,0.4714
3.012,-0.8202
3.013,-3.4865
3.014,-0.361
3.015,0.0081
3.016,-0.2654
3.017,-0.5967
3.018,-3.034
3.019,1.4656
3.02,0.4049
3.021,-0.4001
3.022,-0.5087
3.023,-0.6967
3.024,-1.9839
3.025,2.3356
3.026,0.7347
3.027,-0.213
3.028,-2.8879
3.029,0.4069
3.03,-0.9176
3.031,0.3268
3.032,1.1144
3.033,0.8984
3.034,2.5042
3.035,-0.2587
3.036,1.2047
3.037,-0.6637
3.038,-1.7264
3.039,3.0084
3.04,1.5112
3.041,-0.2631
3.042,0.6637
3.043,1.0445
3.044,2.0504
3.045,-2.4204
3.046,1.8472
3.047,-0.6267
3.048,-0.4754
3.049,-0.4997
3.05,-0.1817
3.051,-0.6879
3.052,0.446
3.053,-0.4175
3.054,-1.5185
3.055,-0.5823
3.056,0.542
3.057,0.0993
3.058,1.7201
3.059,-1.7649
3.06,-3.6031
3.061,-1.3863
3.062,5.1106
3.063,0.5363
3.064,-0.1019
3.065,-1.085
3.066,-0.6795
3.067,-1.287
3.068,0.4784
3.069,1.2968
3.07,-1.5565
3.071,0.2176
3.072,0.1512
3.073,-3.7211
3.074,2.3607
3.075,-1.5489
3.076,-0.2219
3.077,-1.0258
3.078,-0.5955
3.079,3.4833
3.08,-1.3522
3.081,0.0934
3.082,2.0321
3.083,0.4987
3.084,-2.2247
3.085,1.8057
3.086,1.3001
3.087,0.2864
3.088,-0.5001
3.089,0.9566
3.09,-0.4067
3.091,-1.2239
3.092,1.1398
3.093,1.8658
3.094,0.2575
3.095,-0.5847
3.096,-1.2161
3.097,0.034
3.098,-0.3476
3.099,1.3025
3.1,3.4677
3.101,0.5453
3.102,0.6481
3.103,-1.0297
3.104,0.7474
3.105,-0.6152
3.106,0.3907
3.107,1.0849
3.108,-1.0879
3.109,-0.3278
3.11,-2.1052
3.111,0.1247
3.112,1.6692
3.113,2.1685
3.114,-0.409
3.115,2.5227
3.116,2.2244
3.117,-0.3783
3.118,0.2323
3.119,1.5333
3.12,1.3855
3.121,0.2595
3.122,-0.2581
3.123,-1.5167
3.124,-0.0393
3.125,-1.0098
3.126,0.9715
3.127,0.4438
3.128,0.9059
3.129,1.9103
3.13,-0.105
3.131,5.3122
3.132,-2.3014
3.133,-0.7256
3.134,-2.2811
3.135,-2.2841
3.136,-0.1678
3.137,-4.0479
3.138,0.2052
3.139,0.0708
3.14,-1.0914
3.141,-0.2145
3.142,1.0829
3.143,0.5769
3.144,-0.4062
3.145,-0.4087
3.146,-0.9758
3.147,0.3695
3.148,-3.0448
3.149,-1.7639
3.15,-0.1229
3.151,-2.6115
3.152,-1.8735
3.153,0.1388
3.154,-0.2298
3.155,0.8055
3.156,-0.7194
3.157,-0.633
3.158,-1.4368
3.159,0.6565
3.16,-0.8081
3.161,1.139
3.162,-0.0454
3.163,-2.1445
3.164,-0.3223
3.165,1.4723
3.166,-1.2545
3.167,0.0487
3.168,-1.5147
3.169,0.768
3.17,-1.2501
3.171,0.5367
3.172,-0.2151
3.173,-0.8784
3.174,-2.6833
3.175,1.4504
3.176,-0.0748
3.177,1.4136
3.178,1.8332
3.179,2.0418
3.18,0.0677
3.181,-0.0244
3.182,-2.4731
3.183,-2.0453
3.184,0.3247
3.185,-0.6184
3.186,-0.4839
3.187,2.0549
3.188,-0.5325
3.189,1.2341
3.19,-1.3743
3.191,0.356
3.192,1.1434
3.193,-1.779
3.194,-2.2108
3.195,-1.6131
3.196,-0.3362
3.197,-0.9636
3.198,-0.4183
3.199,3.8919
3.2,0.4045
3.201,-0.5962
3.202,0.9704
3.203,0.2262
3.204,1.5182
3.205,-1.5398
3.206,-1.7769
3.207,-2.7756
3.208,-1.846
3.209,1.196
3.21,-2.363
3.211,1.0802
3.212,1.725
3.213,1.2671
3.214,-1.522
3.215,-0.6941
3.216,-1.0535
3.217,-3.0439
3.218,-0.9156
3.219,-1.4708
3.22,-1.3309
3.221,-0.0505
3.222,-2.3121
3.223,-0.0955
3.224,-0.9774
3.225,-1.2872
3.226,-0.7626
3.227,0.7772
3.228,-0.0744
3.229,1.3655
3.23,0.0284
3.231,-1.0072
3.232,1.6571
3.233,-0.9839
3.234,-0.1531
3.235,-2.0187
3.236,-0.5629
3.237,0.1378
3.238,-0.9527
3.239,0.4208
3.24,-0.2807
3.241,-0.7655
3.242,-0.6223
3.243,1.2934
3.244,-1.0251
3.245,-0.8078
3.246,2.1277
3.247,-0.4912
3.248,-0.4568
3.249,1.8557
3.25,0.5964
3.251,-2.2562
3.252,0.3987
3.253,-2.9107
3.254,-1.3021
3.255,-0.9639
3.256,1.0911
3.257,-0.1186
3.258,-1.6628
3.259,-0.6573
3.26,-0.5395
3.261,0.0396
3.262,0.8309
3.263,0.5165
3.264,-2.5175
3.265,-1.3197
3.266,0.0006
3.267,0.0128
3.268,-4.1191
3.269,0.0386
3.27,-1.1824
3.271,0.6694
3.272,1.2814
3.273,0.1275
3.274,-0.0631
3.275,-2.5316
3.276,0.3471
3.277,2.2307
3.278,-0.7828
3.279,2.2886
3.28,0.8785
3.281,-0.9578
3.282,0.7898
3.283,-0.0488
3.284,0.9875
3.285,-0.7109
3.286,1.6926
3.287,1.8656
3.288,-1.323
3.289,0.832
3.29,0.4556
3.291,-0.0238
3.292,-0.2244
3.293,0.2277
3.294,-1.4253
3.295,-0.4438
3.296,-2.013
3.297,1.748
3.298,-1.0455
3.299,1.1132
3.3,-1.8991
3.301,2.1646
3.302,0.2684
3.303,-0.5139
3.304,-0.0693
3.305,-0.1394
3.306,0.1773
3.307,1.8221
3.308,0.8508
3.309,-0.3004
3.31,-2.3572
3.311,-0.5767
3.312,1.8383
3.313,-0.3795
3.314,-1.1423
3.315,-0.7033
3.316,0.151
3.317,0.3277
3.318,1.5345
3.319,0.9665
3.32,1.332
3.321,-1.7265
3.322,2.0087
3.323,-0.1685
3.324,-1.0166
3.325,-0.2087
3.326,-0.8981
3.327,-0.18
3.328,-0.5296
3.329,-0.3706
3.33,-0.3017
3.331,-2.0667
3.332,-1.3933
3.333,-0.3862
3.334,-1.654
3.335,-1.5205
3.336,-0.9536
3.337,1.5192
3.338,0.0209
3.339,-0.1923
3.34,-1.3109
3.341,-0.9227
3.342,0.0352
3.343,1.0704
3.344,-1.0465
3.345,-0.1407
3.346,1.0099
3.347,1.027
3.348,1.0493
3.349,-1.1165
3.35,0.2822
3.351,-1.3603
3.352,-1.7531
3.353,-0.8675
3.354,-0.3896
3.355,-0.2579
3.356,-0.1157
3.357,-1.285
3.358,-0.1414
3.359,-0.3165
3.36,0.3621
3.361,-0.1038
3.362,0.9377
3.363,1.3035
3.364,0.2333
3.365,1.5603
3.366,-0.7725
3.367,2.981
3.368,-0.8816
3.369,-1.7904
3.37,-0.0732
3.371,1.2609
3.372,-0.2912
3.373,0.0074
3.374,-0.3898
3.375,-1.9582
3.376,-1.2402
3.377,-0.3109
3.378,-2.1246
3.379,-0.2514
3.38,-0.4457
3.381,-0.8544
3.382,-0.7506
3.383,0.731
3.384,-0.6459
3.385,-0.4428
3.386,0.8394
3.387,-1.1594
3.388,-1.0711
3.389,0.997
3.39,-1.6876
3.391,-0.3237
3.392,-1.5182
3.393,0.4508
3.394,-2.8705
3.395,-2.238
3.396,0.1142
3.397,-0.3497
3.398,-0.3791
3.399,-0.1597
3.4,-2.0146
3.401,-1.2552
3.402,-1.2963
3.403,1.4802
3.404,-0.1062
3.405,-0.033
3.406,-0.0421
3.407,-1.1116
3.408,0.3885
3.409,0.1707
3.41,0.6391
3.411,-1.8864
3.412,0.2456
3.413,-2.8249
3.414,-0.7428
3.415,-0.9279
3.416,-0.5377
3.417,-1.5155
3.418,0.0288
3.419,-0.4062
3.42,-0.2073
3.421,-0.7325
3.422,0.4114
3.423,0.6765
3.424,0.4786
3.425,-1.1715
3.426,0.3155
3.427,1.2434
3.428,1.099
3.429,1.0286
3.43,0.4374
3.431,-0.4423
3.432,1.5901
3.433,-1.1791
3.434,0.0779
3.435,0.4395
3.436,-2.3559
3.437,0.4708
3.438,-0.5522
3.439,-0.5281
3.44,1.2783
3.441,0.3178
3.442,-1.2599
3.443,0.6375
3.444,0.089
3.445,0.5221
3.446,-0.43
3.447,0.5621
3.448,-0.2557
3.449,1.1235
3.45,1.2396
3.451,0.0231
3.452,0.4851
3.453,-0.9237
3.454,-1.3812
3.455,-1.0888
3.456,-0.3248
3.457,-0.2658
3.458,1.0312
3.459,0.0485
3.46,-0.7668
3.461,-0.0374
3.462,0.9274
3.463,-0.1074
3.464,0.2895
3.465,0.7784
3.466,-0.8263
3.467,0.2352
3.468,-0.1882
3.469,-0.7694
3.47,0.0645
3.471,-0.9039
3.472,-0.9478
3.473,-0.2913
3.474,-1.3678
3.475,-2.1576
3.476,-1.4595
3.477,-0.1971
3.478,0.1229
3.479,0.4265
3.48,0.9528
3.481,-1.2377
3.482,-1.174
3.483,-0.7192
3.484,0.3875
3.485,0.7275
3.486,0.1926
3.487,0.7235
3.488,-1.0216
3.489,-0.2602
3.49,0.3912
3.491,0.2135
3.492,-0.5661
3.493,-0.2816
3.494,-0.422
3.495,-0.6287
3.496,-0.7047
3.497,-1.8957
3.498,-0.1418
3.499,0.43
3.5,0.1601
3.501,-0.633
3.502,0.319
3.503,0.5434
3.504,-0.3722
3.505,-0.3208
3.506,-0.9362
3.507,-1.2504
3.508,0.6446
3.509,0.3554
3.51,-1.1324
3.511,0.4765
3.512,-0.4872
3.513,-1.9387
3.514,-1.1318
3.515,0.2392
3.516,-2.1424
3.517,0.5566
3.518,-0.7292
3.519,-0.3544
3.52,-0.0326
3.521,0.3666
3.522,-0.0055
3.523,-1.1646
3.524,0.6517
3.525,0.2278
3.526,-0.0329
3.527,1.4968
3.528,0.3117
3.529,0.276
3.53,-0.6734
3.531,-0.1329
3.532,-0.7438
3.533,-1.2285
3.534,0.7593
3.535,-1.3595
3.536,-1.2887
3.537,-1.1258
3.538,-0.4822
3.539,-0.1902
3.54,-1.1433
3.541,-0.1908
3.542,0.8694
3.543,-0.6326
3.544,0.5536
3.545,0.1949
3.546,-0.3782
3.547,0.1082
3.548,-0.0263
3.549,-0.4062
3.55,-0.1169
3.551,-0.3085
3.552,0.3178
3.553,-1.0329
3.554,-1.3026
3.555,-0.896
3.556,-0.717
3.557,-1.0285
3.558,0.2327
3.559,-0.5759
3.56,0.0853
3.561,0.3379
3.562,-0.5388
3.563,-0.0847
3.564,0.3436
3.565,-0.188
3.566,0.0817
3.567,-0.4867
3.568,-0.021
3.569,-0.6925
3.57,1.0815
3.571,-0.8634
3.572,-0.458
3.573,-0.5498
3.574,0.0219
3.575,-1.2437
3.576,-0.8567
3.577,-0.0647
3.578,-1.3107
3.579,0.1079
3.58,-0.013
3.581,0.1743
3.582,-0.4855
3.583,-0.5662
3.584,1.1086
3.585,0.2128
3.586,0.6533
3.587,0.392
3.588,-0.3869
3.589,0.3855
3.59,-0.2624
3.591,-1.1462
3.592,-0.4146
3.593,-0.9003
3.594,-0.579
3.595,-0.5139
3.596,-1.4031
3.597,0.1039
3.598,-0.2376
3.599,-0.1468
3.6,-0.8788
3.601,-0.443
3.602,0.1259
3.603,0.3846
3.604,-0.0955
3.605,0.6059
3.606,0.8398
3.607,-0.2239
3.608,-0.1018
3.609,0.8809
3.61,-0.3951
3.611,-0.1326
3.612,-0.0725
3.613,-0.3498
3.614,-1.3624
3.615,-0.6608
3.616,-0.6615
3.617,0.1494
3.618,0.098
3.619,-0.7625
3.62,-0.4844
3.621,-0.2064
3.622,0.4119
3.623,0.2821
3.624,0.0947
3.625,0.4765
3.626,-0.8483
3.627,0.1413
3.628,-0.5415
3.629,-0.3672
3.63,-1.1167
3.631,-0.5389
3.632,-0.4906
3.633,-0.6048
3.634,-0.0006
3.635,-0.4517
3.636,-0.5687
3.637,0.0504
3.638,-0.8381
3.639,-0.516
3.64,-0.0127
3.641,0.9963
3.642,-0.9122
3.643,0.4954
3.644,1.0178
3.645,0.3836
3.646,-0.109
3.647,-0.5119
3.648,-0.0842
3.649,-0.0109
3.65,-0.7699
3.651,-0.6292
3.652,-0.0216
3.653,-1.1309
3.654,-0.6076
3.655,-0.7061
3.656,-0.7502
3.657,-1.3945
3.658,-0.3247
3.659,-0.7173
3.66,-0.7099
3.661,-0.5089
3.662,-0.5348
3.663,-0.0488
3.664,0.8054
3.665,-0.0756
3.666,-0.5851
3.667,0.6738
3.668,0.1387
3.669,0.3817
3.67,0.3009
3.671,-0.9157
3.672,-0.3274
3.673,-0.9604
3.674,-0.3872
3.675,-0.8379
3.676,-0.4252
3.677,-0.1524
3.678,-0.2202
3.679,-0.4814
3.68,-0.1602
3.681,0.1469
3.682,0.7389
3.683,-0.093
3.684,0.3133
3.685,0.0621
3.686,-0.0162
3.687,0.2421
3.688,0.6613
3.689,-0.1226
3.69,-0.0799
3.691,-1.0672
3.692,0.1126
3.693,-0.1735
3.694,-0.9317
3.695,-0.5016
3.696,-0.5237
3.697,-0.7935
3.698,-0.5393
3.699,-0.2309
3.7,0.4796
3.701,-0.168
3.702,0.2371
3.703,0.2257
3.704,0.3607
3.705,0.3763
3.706,0.0755
3.707,0.2858
3.708,-0.3021
3.709,0.1329
3.71,-0.0426
3.711,-0.2254
3.712,-0.5048
3.713,-0.3515
3.714,-0.5073
3.715,-0.9135
3.716,-0.5888
3.717,0.0853
3.718,-0.5316
3.719,-0.1033
3.72,0.4512
3.721,-0.0369
3.722,-0.1607
3.723,0.5557
3.724,0.9606
3.725,0.5276
3.726,-0.0652
3.727,0.3275
3.728,0.2318
3.729,-0.0216
3.73,-0.2961
3.731,-0.3469
3.732,-0.9627
3.733,-0.5561
3.734,-0.9343
3.735,-0.3798
3.736,-0.5875
3.737,0.2223
3.738,-0.3926
3.739,0.0105
3.74,-0.8825
3.741,0.0882
3.742,-0.0064
3.743,0.0933
3.744,0.1298
3.745,0.1432
3.746,0.1228
3.747,0.4766
3.748,0.0953
3.749,-0.072
3.75,-0.2596
3.751,0.0347
3.752,-0.4489
3.753,-0.771
3.754,-0.4463
3.755,-0.7497
3.756,-0.1431
3.757,-0.3507
3.758,-0.3916
3.759,0.0028
3.76,-0.1001
3.761,-0.16
3.762,0.286
3.763,0.3552
3.764,0.2102
3.765,0.065
3.766,0.0466
3.767,0.0491
3.768,0.1659
3.769,0.1206
3.77,-0.442
3.771,-0.0898
3.772,-0.4742
3.773,-0.4703
3.774,-0.5459
3.775,-0.3531
3.776,-0.2787
3.777,-0.3203
3.778,-0.487
3.779,-0.2481
3.78,0.248
3.781,-0.0076
3.782,-0.0439
3.783,0.1675
3.784,0.1048
3.785,0.0531
3.786,0.2541
3.787,0.506
3.788,-0.1258
3.789,0.186
3.79,-0.2044
3.791,-0.281
3.792,-0.5883
3.793,-0.476
3.794,-0.4828
3.795,-0.5203
3.796,-0.668
3.797,-0.273
3.798,-0.2832
3.799,-0.0233
3.8,-0.2516
3.801,0.4603
3.802,0.234
3.803,0.4295
3.804,0.4043
3.805,0.3394
3.806,0.4093
3.807,0.1057
3.808,0.0224
3.809,-0.0336
3.81,-0.049
3.811,-0.0545
3.812,-0.4449
3.813,-0.6594
3.814,-0.4012
3.815,-0.5251
3.816,-0.5245
3.817,-0.4336
3.818,-0.4032
3.819,-0.1478
3.82,-0.0773
3.821,-0.1137
3.822,0.1605
3.823,0.2804
3.824,0.2872
3.825,0.2394
3.826,0.2539
3.827,0.2694
3.828,0.218
3.829,0.0504
3.83,-0.0207
3.831,-0.2594
3.832,-0.1908
3.833,-0.5581
3.834,-0.4541
3.835,-0.2948
3.836,-0.2958
3.837,-0.3712
3.838,-0.28
3.839,-0.2025
3.84,-0.0585
3.841,0.1588
3.842,0.2726
3.843,0.4186
3.844,0.3329
3.845,0.2688
3.846,0.3508
3.847,0.1711
3.848,-0.0069
3.849,0.1539
3.85,-0.1521
3.851,-0.4269
3.852,-0.2188
3.853,-0.5389
3.854,-0.4745
3.855,-0.5488
3.856,-0.4123
3.857,-0.3383
3.858,-0.2972
3.859,-0.0825
3.86,-0.1209
3.861,0.1886
3.862,0.1493
3.863,0.2668
3.864,0.4392
3.865,0.2733
3.866,0.325
3.867,0.2401
3.868,0.1416
3.869,0.0577
3.87,-0.1405
3.871,-0.1139
3.872,-0.4814
3.873,-0.4257
3.874,-0.4977
3.875,-0.3557
3.876,-0.5029
3.877,-0.3896
3.878,-0.231
3.879,-0.0387
3.88,-0.0642
3.881,0.3135
3.882,0.2702
3.883,0.2767
3.884,0.5208
3.885,0.4328
3.886,0.363
3.887,0.3849
3.888,0.1523
3.889,-0.0654
3.89,-0.0984
3.891,-0.1423
3.892,-0.2687
3.893,-0.4063
3.894,-0.4343
3.895,-0.4732
3.896,-0.4604
3.897,-0.4108
3.898,-0.2861
3.899,-0.1413
3.9,-0.0282
3.901,0.0757
3.902,0.246
3.903,0.1832
3.904,0.3817
3.905,0.4139
3.906,0.3533
3.907,0.2424
3.908,0.1881
3.909,0.0685
3.91,-0.1279
3.911,-0.1266
3.912,-0.2769
3.913,-0.471
3.914,-0.4199
3.915,-0.4375
3.916,-0.3595
3.917,-0.358
3.918,-0.2242
3.919,-0.0402
3.92,0.0251
3.921,0.105
3.922,0.344
3.923,0.3535
3.924,0.3559
3.925,0.4429
3.926,0.3766
3.927,0.2692
3.928,0.1597
3.929,-0.0536
3.93,-0.0029
3.931,-0.2455
3.932,-0.376
3.933,-0.3245
3.934,-0.4404
3.935,-0.4101
3.936,-0.3049
3.937,-0.3224
3.938,-0.2189
3.939,-0.0159
3.94,-0.0523
3.941,0.099
3.942,0.264
3.943,0.3541
3.944,0.3916
3.945,0.3962
3.946,0.4563
3.947,0.3493
3.948,0.2998
3.949,0.0783
3.95,-0.0747
3.951,-0.1528
3.952,-0.3307
3.953,-0.2432
3.954,-0.4493
3.955,-0.2959
3.956,-0.4304
3.957,-0.2627
3.958,-0.1929
3.959,-0.0919
3.96,0.001
3.961,0.2991
3.962,0.327
3.963,0.4506
3.964,0.4148
3.965,0.4014
3.966,0.2647
3.967,0.3252
3.968,0.1711
3.969,0.1437
3.97,-0.0425
3.971,-0.1372
3.972,-0.2381
3.973,-0.3276
3.974,-0.3303
3.975,-0.3412
3.976,-0.394
3.977,-0.2689
3.978,-0.1458
3.979,-0.098
3.98,0.0847
3.981,0.2043
3.982,0.3002
3.983,0.422
3.984,0.488
3.985,0.4308
3.986,0.4178
3.987,0.351
3.988,0.2842
3.989,0.1577
3.99,0.0085
3.991,-0.1437
3.992,-0.2882
3.993,-0.3218
3.994,-0.3584
3.995,-0.3703
3.996,-0.297
3.997,-0.2067
3.998,-0.1646
3.999,-0.0197
4.0,0.0632
4.001,0.2359
4.002,0.2912
4.003,0.4582
4.004,0.4675
4.005,0.5385
4.006,0.4372
4.007,0.4046
4.008,0.2557
4.009,0.1173
4.01,-0.058
4.011,-0.0606
4.012,-0.2523
4.013,-0.2591
4.014,-0.3355
4.015,-0.3387
4.016,-0.3154
4.017,-0.1368
4.018,-0.1455
4.019,-0.0435
4.02,0.07
4.021,0.3738
4.022,0.3212
4.023,0.3487
4.024,0.4472
4.025,0.4737
4.026,0.4249
4.027,0.3907
4.028,0.281
4.029,0.23
4.03,0.1192
4.031,-0.1157
4.032,-0.2298
4.033,-0.3409
4.034,-0.3378
4.035,-0.2909
4.036,-0.2365
4.037,-0.2276
4.038,-0.125
4.039,0.0447
4.04,0.1127
4.041,0.3954
4.042,0.2878
4.043,0.4991
4.044,0.4586
4.045,0.537
4.046,0.4179
4.047,0.3402
4.048,0.1907
4.049,0.1346
4.05,0.1575
4.051,-0.1086
4.052,-0.0935
4.053,-0.2405
4.054,-0.207
4.055,-0.2795
4.056,-0.2747
4.057,-0.1546
4.058,-0.0694
4.059,-0.0045
4.06,0.2009
4.061,0.233
4.062,0.3974
4.063,0.4442
4.064,0.4819
4.065,0.5959
4.066,0.4368
4.067,0.4662
4.068,0.3253
4.069,0.1657
4.07,0.1267
4.071,-0.1509
4.072,-0.1496
4.073,-0.1688
4.074,-0.2288
4.075,-0.2969
4.076,-0.2907
4.077,-0.251
4.078,-0.0476
4.079,0.0936
4.08,0.2064
4.081,0.307
4.082,0.5454
4.083,0.4873
4.084,0.5412
4.085,0.6022
4.086,0.5236
4.087,0.3369
4.088,0.3283
4.089,0.2438
4.09,0.1419
4.091,-0.1074
4.092,-0.0925
4.093,-0.3186
4.094,-0.2902
4.095,-0.3317
4.096,-0.2328
4.097,-0.2225
4.098,-0.1318
4.099,0.0076
4.1,0.252
4.101,0.2686
4.102,0.428
4.103,0.526
4.104,0.5523
4.105,0.5895
4.106,0.4549
4.107,0.4018
4.108,0.3601
4.109,0.2433
4.11,0.1008
4.111,-0.0401
4.112,-0.1619
4.113,-0.1523
4.114,-0.1865
4.115,-0.1715
4.116,-0.1912
4.117,-0.1093
4.118,-0.0366
4.119,0.0372
4.12,0.1673
4.121,0.2873
4.122,0.3905
4.123,0.4499
4.124,0.5699
4.125,0.5742
4.126,0.4584
4.127,0.3535
4.128,0.2923
4.129,0.2709
4.13,0.0604
4.131,0.0265
4.132,-0.1091
4.133,-0.1666
4.134,-0.2698
4.135,-0.2373
4.136,-0.1934
4.137,-0.0802
4.138,-0.0576
4.139,0.0896
4.14,0.2184
4.141,0.4291
4.142,0.4292
4.143,0.523
4.144,0.6355
4.145,0.5451
4.146,0.6352
4.147,0.5115
4.148,0.3449
4.149,0.1665
4.15,0.0128
4.151,-0.0633
4.152,-0.1122
4.153,-0.1908
4.154,-0.1874
4.155,-0.2329
4.156,-0.1286
4.157,-0.0799
4.158,-0.0543
4.159,0.0967
4.16,0.225
4.161,0.3195
4.162,0.447
4.163,0.5651
4.164,0.6157
4.165,0.6407
4.166,0.6779
4.167,0.4611
4.168,0.3755
4.169,0.2266
4.17,0.1152
4.171,0.0018
4.172,-0.0591
4.173,-0.1552
4.174,-0.175
4.175,-0.1742
4.176,-0.1154
4.177,-0.1693
4.178,-0.0031
4.179,0.1218
4.18,0.2828
4.181,0.4281
4.182,0.4382
4.183,0.571
4.184,0.5471
4.185,0.5822
4.186,0.6631
4.187,0.5353
4.188,0.3102
4.189,0.2261
4.19,0.2482
4.191,0.0501
4.192,-0.1381
4.193,-0.1145
4.194,-0.1703
4.195,-0.2327
4.196,-0.0943
4.197,-0.052
4.198,0.0879
4.199,0.1913
4.2,0.2625
4.201,0.3045
4.202,0.5481
4.203,0.6434
4.204,0.5929
4.205,0.5749
4.206,0.654
4.207,0.5746
4.208,0.4017
4.209,0.3226
4.21,0.2404
4.211,0.1263
4.212,-0.0906
4.213,-0.1785
4.214,-0.2644
4.215,-0.1562
4.216,-0.1231
4.217,-0.1641
4.218,0.0354
4.219,0.2245
4.22,0.3414
4.221,0.4699
4.222,0.4811
4.223,0.6545
4.224,0.6606
4.225,0.6366
4.226,0.5738
4.227,0.5323
4.228,0.4955
4.229,0.2752
4.23,0.2016
4.231,0.0779
4.232,-0.0427
4.233,-0.1469
4.234,-0.1216
4.235,-0.2082
4.236,-0.1036
4.237,-0.0827
4.238,0.0021
4.239,0.1795
4.24,0.3352
4.241,0.457
4.242,0.5401
4.243,0.5509
4.244,0.6824
4.245,0.7155
4.246,0.6057
4.247,0.5276
4.248,0.5073
4.249,0.307
4.25,0.2671
4.251,0.0502
4.252,0.0213
4.253,-0.0839
4.254,-0.2114
4.255,-0.1701
4.256,-0.0425
4.257,-0.0658
4.258,0.0926
4.259,0.2113
4.26,0.3033
4.261,0.4318
4.262,0.4655
4.263,0.6393
4.264,0.789
4.265,0.5443
4.266,0.6059
4.267,0.5486
4.268,0.3745
4.269,0.3553
4.27,0.3089
4.271,0.1881
4.272,-0.0441
4.273,-0.1061
4.274,-0.1632
4.275,-0.1217
4.276,-0.1352
4.277,-0.0114
4.278,0.1067
4.279,0.2918
4.28,0.315
4.281,0.37
4.282,0.5289
4.283,0.5865
4.284,0.6136
4.285,0.7276
4.286,0.5687
4.287,0.5581
4.288,0.4982
4.289,0.3747
4.29,0.1941
4.291,0.1719
4.292,0.0389
4.293,-0.1069
4.294,-0.1399
4.295,-0.1369
4.296,-0.1842
4.297,0.031
4.298,0.0989
4.299,0.2091
4.3,0.414
4.301,0.3894
4.302,0.4784
4.303,0.6233
4.304,0.6575
4.305,0.786
4.306,0.6394
4.307,0.5826
4.308,0.4721
4.309,0.3285
4.31,0.1443
4.311,0.0941
4.312,0.0745
4.313,0.0143
4.314,-0.0643
4.315,-0.1179
4.316,-0.0752
4.317,0.0204
4.318,0.119
4.319,0.2869
4.32,0.397
4.321,0.4701
4.322,0.6119
4.323,0.6221
4.324,0.6361
4.325,0.6008
4.326,0.6538
4.327,0.6344
4.328,0.4307
4.329,0.3654
4.33,0.2811
4.331,0.0726
4.332,0.0311
4.333,-0.1168
4.334,-0.0243
4.335,-0.1449
4.336,-0.0215
4.337,-0.0195
4.338,0.1548
4.339,0.1699
4.34,0.3667
4.341,0.4982
4.342,0.6137
4.343,0.6614
4.344,0.7629
4.345,0.6895
4.346,0.6278
4.347,0.6129
4.348,0.4725
4.349,0.3595
4.35,0.3029
4.351,0.0779
4.352,0.0845
4.353,-0.0466
4.354,-0.0813
4.355,-0.034
4.356,0.0571
4.357,0.0243
4.358,0.175
4.359,0.2931
4.36,0.4012
4.361,0.4003
4.362,0.6271
4.363,0.6088
4.364,0.5966
4.365,0.5741
4.366,0.695
4.367,0.6459
4.368,0.5016
4.369,0.3962
4.37,0.1544
4.371,0.1443
4.372,0.0821
4.373,0.0133
4.374,-0.1409
4.375,-0.063
4.376,-0.0971
4.377,0.0699
4.378,0.2218
4.379,0.2402
4.38,0.3202
4.381,0.4528
4.382,0.5979
4.383,0.6627
4.384,0.6522
4.385,0.8035
4.386,0.6807
4.387,0.6175
4.388,0.546
4.389,0.456
4.39,0.1421
4.391,0.1616
4.392,-0.0088
4.393,-0.0229
4.394,0.0115
4.395,-0.2054
4.396,-0.0066
4.397,0.0371
4.398,0.1596
4.399,0.2666
4.4,0.4322
4.401,0.5404
4.402,0.6394
4.403,0.6431
4.404,0.7335
4.405,0.7461
4.406,0.6694
4.407,0.6213
4.408,0.4675
4.409,0.3568
4.41,0.3101
4.411,0.1722
4.412,0.0392
4.413,-0.0784
4.414,-0.1499
4.415,-0.0034
4.416,0.0581
4.417,0.0155
4.418,0.1726
4.419,0.2385
4.42,0.4251
4.421,0.5277
4.422,0.608
4.423,0.7258
4.424,0.693
4.425,0.734
4.426,0.605
4.427,0.6413
4.428,0.5521
4.429,0.3275
4.43,0.2985
4.431,0.1693
4.432,0.0934
4.433,-0.0506
4.434,-0.1032
4.435,-0.0384
4.436,0.0067
4.437,-0.0144
4.438,0.0961
4.439,0.2703
4.44,0.3204
4.441,0.5469
4.442,0.5771
4.443,0.7255
4.444,0.7586
4.445,0.6873
4.446,0.6089
4.447,0.5706
4.448,0.5736
4.449,0.3871
4.45,0.2013
4.451,0.096
4.452,0.0522
4.453,0.0346
4.454,-0.1025
4.455,-0.0203
4.456,0.092
4.457,0.1102
4.458,0.0969
4.459,0.2218
4.46,0.3624
4.461,0.4769
4.462,0.668
4.463,0.7471
4.464,0.6646
4.465,0.6313
4.466,0.665
4.467,0.5726
4.468,0.5476
4.469,0.4391
4.47,0.2687
4.471,0.1189
4.472,0.004
4.473,-0.0942
4.474,-0.0977
4.475,-0.0872
4.476,-0.0342
4.477,0.0566
4.478,0.092
4.479,0.2457
4.48,0.4211
4.481,0.4623
4.482,0.6731
4.483,0.5609
4.484,0.6802
4.485,0.7495
4.486,0.6538
4.487,0.5519
4.488,0.4883
4.489,0.3632
4.49,0.2818
4.491,0.1692
4.492,0.0543
4.493,-0.0458
4.494,0.0032
4.495,-0.0339
4.496,-0.0117
4.497,0.0189
4.498,0.1688
4.499,0.2646
4.5,0.3923
4.501,0.5518
4.502,0.4934
4.503,0.6956
4.504,0.7509
4.505,0.763
4.506,0.702
4.507,0.6894
4.508,0.4493
4.509,0.4222
4.51,0.1744
4.511,0.2543
4.512,0.0247
4.513,-0.044
4.514,0.0016
4.515,-0.0644
4.516,0.0381
4.517,0.0487
4.518,0.1063
4.519,0.2752
4.52,0.3707
4.521,0.496
4.522,0.5754
4.523,0.6224
4.524,0.6446
4.525,0.7681
4.526,0.7682
4.527,0.5929
4.528,0.5944
4.529,0.4362
4.53,0.2922
4.531,0.1294
4.532,0.0966
4.533,0.064
4.534,-0.0958
4.535,-0.0131
4.536,-0.0738
4.537,0.0267
4.538,0.1059
4.539,0.2686
4.54,0.3309
4.541,0.5188
4.542,0.5667
4.543,0.661
4.544,0.7129
4.545,0.6915
4.546,0.6638
4.547,0.5923
4.548,0.5153
4.549,0.3067
4.55,0.2867
4.551,0.1227
4.552,-0.002
4.553,-0.106
4.554,-0.1359
4.555,-0.1329
4.556,-0.0252
4.557,-0.0046
4.558,0.19
4.559,0.3062
4.56,0.4258
4.561,0.4835
4.562,0.6452
4.563,0.6812
4.564,0.6748
4.565,0.6512
4.566,0.6386
4.567,0.5549
4.568,0.5786
4.569,0.3369
4.57,0.2774
4.571,0.2492
4.572,-0.0368
4.573,-0.0157
4.574,-0.0429
4.575,-0.1506
4.576,-0.0842
4.577,-0.0308
4.578,0.1235
4.579,0.2563
4.58,0.428
4.581,0.4645
4.582,0.6188
4.583,0.6398
4.584,0.6499
4.585,0.6606
4.586,0.7257
4.587,0.6584
4.588,0.4631
4.589,0.2984
4.59,0.2323
4.591,0.1147
4.592,0.02
4.593,-0.104
4.594,-0.076
4.595,-0.065
4.596,-0.0028
4.597,0.0377
4.598,0.0686
4.599,0.1955
4.6,0.255
4.601,0.5234
4.602,0.693
4.603,0.7087
4.604,0.6783
4.605,0.6857
4.606,0.6245
4.607,0.5367
4.608,0.4293
4.609,0.4111
4.61,0.2141
4.611,0.1519
4.612,0.0879
4.613,-0.1841
4.614,-0.1085
4.615,-0.0716
4.616,-0.0808
4.617,0.0015
4.618,0.1133
4.619,0.2483
4.62,0.308
4.621,0.3922
4.622,0.597
4.623,0.5766
4.624,0.6941
4.625,0.7504
4.626,0.6641
4.627,0.5793
4.628,0.434
4.629,0.3221
4.63,0.1826
4.631,0.1841
4.632,-0.0227
4.633,-0.0583
4.634,-0.1372
4.635,-0.0839
4.636,0.016
4.637,0.0529
4.638,0.0595
4.639,0.1878
4.64,0.4135
4.641,0.4624
4.642,0.5909
4.643,0.5548
4.644,0.6538
4.645,0.703
4.646,0.6555
4.647,0.5126
4.648,0.4351
4.649,0.3941
4.65,0.2072
4.651,0.0962
4.652,0.1058
4.653,-0.0654
4.654,-0.1217
4.655,-0.2244
4.656,-0.0774
4.657,-0.0107
4.658,0.0796
4.659,0.2838
4.66,0.3097
4.661,0.4478
4.662,0.5587
4.663,0.6424
4.664,0.7144
4.665,0.7595
4.666,0.6708
4.667,0.4855
4.668,0.471
4.669,0.3233
4.67,0.2408
4.671,0.2018
4.672,-0.0271
4.673,-0.112
4.674,-0.1173
4.675,-0.0721
4.676,-0.2088
4.677,0.0685
4.678,0.1431
4.679,0.1664
4.68,0.3577
4.681,0.4533
4.682,0.5512
4.683,0.6084
4.684,0.6744
4.685,0.7098
4.686,0.5278
4.687,0.5168
4.688,0.4432
4.689,0.4328
4.69,0.2467
4.691,0.1227
4.692,-0.0406
4.693,-0.0043
4.694,-0.0775
4.695,-0.1188
4.696,-0.1069
4.697,0.0755
4.698,0.1583
4.699,0.2249
4.7,0.3803
4.701,0.3886
4.702,0.5067
4.703,0.6363
4.704,0.5746
4.705,0.5926
4.706,0.6915
4.707,0.4453
4.708,0.3929
4.709,0.3506
4.71,0.189
4.711,0.0333
4.712,-0.0052
4.713,-0.0969
4.714,-0.1146
4.715,-0.1373
4.716,-0.1908
4.717,-0.03
4.718,0.0087
4.719,0.2503
4.72,0.3605
4.721,0.3848
4.722,0.5064
4.723,0.5537
4.724,0.5418
4.725,0.6634
4.726,0.457
4.727,0.4058
4.728,0.3944
4.729,0.437
4.73,0.2867
4.731,0.1036
4.732,0.015
4.733,-0.0426
4.734,-0.1353
4.735,-0.1913
4.736,-0.0234
4.737,-0.0486
4.738,0.0589
4.739,0.205
4.74,0.224
4.741,0.3319
4.742,0.5215
4.743,0.5671
4.744,0.6024
4.745,0.6952
4.746,0.6152
4.747,0.5121
4.748,0.4653
4.749,0.2712
4.75,0.1407
4.751,0.0818
4.752,-0.0617
4.753,-0.1561
4.754,-0.1688
4.755,-0.2136
4.756,-0.1546
4.757,-0.0568
4.758,0.087
4.759,0.1748
4.76,0.2938
4.761,0.3488
4.762,0.5538
4.763,0.5821
4.764,0.5779
4.765,0.5962
4.766,0.5489
4.767,0.4646
4.768,0.333
4.769,0.3242
4.77,0.0996
4.771,-0.0045
4.772,-0.0783
4.773,-0.0315
4.774,-0.2348
4.775,-0.2435
4.776,-0.1169
4.777,-0.0225
4.778,0.0264
4.779,0.1227
4.78,0.1503
4.781,0.3649
4.782,0.3626
4.783,0.5367
4.784,0.6622
4.785,0.665
4.786,0.5972
4.787,0.4713
4.788,0.3637
4.789,0.2972
4.79,0.1483
4.791,0.084
4.792,-0.0867
4.793,-0.1774
4.794,-0.249
4.795,-0.1979
4.796,-0.2121
4.797,-0.0722
4.798,0.1087
4.799,0.1165
4.8,0.1874
4.801,0.2957
4.802,0.4323
4.803,0.5802
4.804,0.5369
4.805,0.6468
4.806,0.5487
4.807,0.5127
4.808,0.3379
4.809,0.3114
4.81,0.1184
4.811,-0.0605
4.812,-0.0907
4.813,-0.2072
4.814,-0.2457
4.815,-0.2338
4.816,-0.2786
4.817,-0.0992
4.818,0.0212
4.819,0.2064
4.82,0.2591
4.821,0.3513
4.822,0.5283
4.823,0.5626
4.824,0.5269
4.825,0.5683
4.826,0.5503
4.827,0.3797
4.828,0.4473
4.829,0.1901
4.83,0.1101
4.831,-0.0571
4.832,-0.1583
4.833,-0.2549
4.834,-0.2217
4.835,-0.2357
4.836,-0.219
4.837,-0.1187
4.838,-0.0199
4.839,0.0755
4.84,0.2392
4.841,0.2884
4.842,0.4498
4.843,0.5195
4.844,0.5518
4.845,0.5323
4.846,0.4507
4.847,0.4657
4.848,0.341
4.849,0.2101
4.85,0.1805
4.851,-0.0522
4.852,-0.1398
4.853,-0.2849
4.854,-0.1759
4.855,-0.1969
4.856,-0.2706
4.857,-0.1218
4.858,0.0315
4.859,0.0513
4.86,0.2569
4.861,0.272
4.862,0.4564
4.863,0.4253
4.864,0.5091
4.865,0.496
4.866,0.4595
4.867,0.4252
4.868,0.3679
4.869,0.2261
4.87,0.0832
4.871,-0.0517
4.872,-0.1374
4.873,-0.2112
4.874,-0.3365
4.875,-0.1999
4.876,-0.2357
4.877,-0.0538
4.878,-0.1302
4.879,0.105
4.88,0.1775
4.881,0.277
4.882,0.3332
4.883,0.5143
4.884,0.5265
4.885,0.527
4.886,0.4479
4.887,0.4103
4.888,0.3627
4.889,0.1512
4.89,0.0884
4.891,-0.0212
4.892,-0.1473
4.893,-0.2046
4.894,-0.2041
4.895,-0.2918
4.896,-0.3071
4.897,-0.2615
4.898,-0.095
4.899,0.0274
4.9,0.2084
4.901,0.2322
4.902,0.3264
4.903,0.5179
4.904,0.5592
4.905,0.5216
4.906,0.4115
4.907,0.3863
4.908,0.233
4.909,0.1865
4.91,-0.0988
4.911,-0.0073
4.912,-0.2603
4.913,-0.2783
4.914,-0.317
4.915,-0.3497
4.916,-0.2134
4.917,-0.1901
4.918,-0.0283
4.919,-0.0034
4.92,0.0911
4.921,0.2271
4.922,0.3968
4.923,0.4268
4.924,0.532
4.925,0.5057
4.926,0.3832
4.927,0.4091
4.928,0.2018
4.929,0.144
4.93,-0.0268
4.931,-0.2427
4.932,-0.2123
4.933,-0.2867
4.934,-0.3109
4.935,-0.2971
4.936,-0.3087
4.937,-0.2077
4.938,-0.153
4.939,-0.0186
4.94,0.1521
4.941,0.2353
4.942,0.3287
4.943,0.3974
4.944,0.4582
4.945,0.5085
4.946,0.3887
4.947,0.3538
4.948,0.154
4.949,0.0178
4.95,-0.0324
4.951,-0.1472
4.952,-0.1849
4.953,-0.3445
4.954,-0.3567
4.955,-0.2976
4.956,-0.3169
4.957,-0.2669
4.958,-0.1737
4.959,-0.089
4.96,0.0394
4.961,0.2986
4.962,0.2965
4.963,0.3068
4.964,0.4785
4.965,0.373
4.966,0.3963
4.967,0.3436
4.968,0.2226
4.969,0.0946
4.97,-0.0443
4.971,-0.0944
4.972,-0.2464
4.973,-0.298
4.974,-0.229
4.975,-0.3655
4.976,-0.4026
4.977,-0.2462
4.978,-0.1351
4.979,0.0113
4.98,0.1429
4.981,0.2278
4.982,0.2508
4.983,0.4014
4.984,0.4362
4.985,0.4344
4.986,0.4363
4.987,0.3635
4.988,0.1909
4.989,0.0092
4.99,-0.136
4.991,-0.2121
4.992,-0.2907
4.993,-0.2604
4.994,-0.3939
4.995,-0.3602
4.996,-0.3692
4.997,-0.3807
4.998,-0.1463
4.999,-0.0686
5.001,0.0229
5.002,0.1268
5.003,0.338
5.004,0.3576
5.005,0.4694
5.006,0.3942
5.007,0.3349
5.008,0.2874
5.009,0.1992
5.01,0.0185
5.011,0.0087
5.012,-0.2069
5.013,-0.2956
5.014,-0.3433
5.015,-0.3007
5.016,-0.4885
5.017,-0.3974
5.018,-0.2635
5.019,-0.274
5.02,-0.0173
5.021,0.0128
5.022,0.1593
5.023,0.2667
5.024,0.3007
5.025,0.3147
5.026,0.4062
5.027,0.3447
5.028,0.3607
5.029,0.1464
5.03,0.0324
5.031,-0.1841
5.032,-0.2181
5.033,-0.228
5.034,-0.4193
5.035,-0.3647
5.036,-0.4992
5.037,-0.2869
5.038,-0.2343
5.039,-0.3457
5.04,-0.0935
5.041,0.0242
5.042,0.0158
5.043,0.2687
5.044,0.2927
5.045,0.3379
5.046,0.3894
5.047,0.3223
5.048,0.2623
5.049,0.1695
5.05,-0.0163
5.051,-0.0444
5.052,-0.2211
5.053,-0.2733
5.054,-0.4768
5.055,-0.374
5.056,-0.4944
5.057,-0.357
5.058,-0.3302
5.059,-0.2274
5.06,-0.121
5.061,-0.0436
5.062,0.1023
5.063,0.2311
5.064,0.3467
5.065,0.374
5.066,0.3402
5.067,0.2291
5.068,0.2995
5.069,0.0561
5.07,-0.0062
5.071,-0.1341
5.072,-0.238
5.073,-0.331
5.074,-0.4347
5.075,-0.4949
5.076,-0.4485
5.077,-0.4447
5.078,-0.3045
5.079,-0.2903
5.08,-0.1643
5.081,-0.0063
5.082,0.0945
5.083,0.1986
5.084,0.2586
5.085,0.3233
5.086,0.3609
5.087,0.3072
5.088,0.2035
5.089,0.073
5.09,-0.0171
5.091,-0.1598
5.092,-0.2491
5.093,-0.3299
5.094,-0.4319
5.095,-0.4969
5.096,-0.4553
5.097,-0.3811
5.098,-0.2735
5.099,-0.2964
5.1,-0.1599
5.101,-0.0722
5.102,0.0304
5.103,0.2602
5.104,0.3167
5.105,0.2831
5.106,0.2958
5.107,0.2478
5.108,0.1813
5.109,0.0981
5.11,0.0163
5.111,-0.2169
5.112,-0.3516
5.113,-0.2976
5.114,-0.5444
5.115,-0.4546
5.116,-0.5909
5.117,-0.4615
5.118,-0.3368
5.119,-0.3437
5.12,-0.2894
5.121,-0.1271
5.122,0.0934
5.123,0.1583
5.124,0.2059
5.125,0.2314
5.126,0.197
5.127,0.2653
5.128,0.2081
5.129,0.1059
5.13,-0.2004
5.131,-0.1944
5.132,-0.3219
5.133,-0.4447
5.134,-0.4725
5.135,-0.5445
5.136,-0.5742
5.137,-0.5297
5.138,-0.4116
5.139,-0.3682
5.14,-0.1836
5.141,-0.1314
5.142,-0.0098
5.143,0.1266
5.144,0.1231
5.145,0.3152
5.146,0.3161
5.147,0.1973
5.148,0.1025
5.149,0.1785
5.15,0.0145
5.151,-0.1398
5.152,-0.2977
5.153,-0.389
5.154,-0.4468
5.155,-0.5019
5.156,-0.5577
5.157,-0.5289
5.158,-0.4382
5.159,-0.2838
5.16,-0.2602
5.161,-0.1532
5.162,0.0216
5.163,0.1153
5.164,0.1964
5.165,0.273
5.166,0.2154
5.167,0.145
5.168,0.1593
5.169,0.0864
5.17,-0.2091
5.171,-0.2233
5.172,-0.252
5.173,-0.3524
5.174,-0.4948
5.175,-0.4963
5.176,-0.5573
5.177,-0.5966
5.178,-0.4537
5.179,-0.3109
5.18,-0.174
5.181,-0.17
5.182,0.0726
5.183,0.0377
5.184,0.1186
5.185,0.2559
5.186,0.243
5.187,0.232
5.188,0.0777
5.189,-0.0484
5.19,0.0006
5.191,-0.3086
5.192,-0.3898
5.193,-0.4268
5.194,-0.5084
5.195,-0.4489
5.196,-0.6234
5.197,-0.5634
5.198,-0.5407
5.199,-0.3964
5.2,-0.1962
5.201,-0.1626
5.202,0.0405
5.203,0.0754
5.204,0.2652
5.205,0.1262
5.206,0.1039
5.207,0.2017
5.208,0.0907
5.209,-0.0085
5.21,-0.1375
5.211,-0.1882
5.212,-0.4026
5.213,-0.4519
5.214,-0.601
5.215,-0.5027
5.216,-0.4903
5.217,-0.5459
5.218,-0.4585
5.219,-0.3286
5.22,-0.2672
5.221,-0.1816
5.222,-0.0054
5.223,0.1077
5.224,0.1277
5.225,0.2805
5.226,0.1748
5.227,0.0975
5.228,0.0757
5.229,-0.0684
5.23,-0.128
5.231,-0.2489
5.232,-0.4328
5.233,-0.529
5.234,-0.6031
5.235,-0.6098
5.236,-0.6392
5.237,-0.5642
5.238,-0.6099
5.239,-0.413
5.24,-0.3558
5.241,-0.0974
5.242,-0.0289
5.243,0.0564
5.244,0.1165
5.245,0.1485
5.246,0.1337
5.247,0.1206
5.248,-0.0316
5.249,-0.1884
5.25,-0.157
5.251,-0.2719
5.252,-0.4464
5.253,-0.5404
5.254,-0.4833
5.255,-0.6845
5.256,-0.6014
5.257,-0.6233
5.258,-0.5667
5.259,-0.4368
5.26,-0.2562
5.261,-0.1723
5.262,-0.0601
5.263,0.0061
5.264,0.1771
5.265,0.2073
5.266,0.1277
5.267,0.1689
5.268,0.0185
5.269,-0.1209
5.27,-0.1601
5.271,-0.3569
5.272,-0.3891
5.273,-0.4825
5.274,-0.6149
5.275,-0.6773
5.276,-0.615
5.277,-0.6596
5.278,-0.5168
5.279,-0.3846
5.28,-0.3427
5.281,-0.1973
5.282,-0.101
5.283,-0.0166
5.284,0.0295
5.285,0.0708
5.286,0.1053
5.287,0.0254
5.288,-0.0367
5.289,-0.0728
5.29,-0.1754
5.291,-0.3793
5.292,-0.4571
5.293,-0.6051
5.294,-0.6228
5.295,-0.7143
5.296,-0.6339
5.297,-0.6683
5.298,-0.5644
5.299,-0.4988
5.3,-0.3075
5.301,-0.2269
5.302,0.0578
5.303,-0.0231
5.304,0.1213
5.305,0.12
5.306,0.2603
5.307,0.0468
5.308,0.0224
5.309,-0.0938
5.31,-0.2134
5.311,-0.3491
5.312,-0.407
5.313,-0.4566
5.314,-0.627
5.315,-0.7754
5.316,-0.6919
5.317,-0.6116
5.318,-0.5263
5.319,-0.5097
5.32,-0.305
5.321,-0.1392
5.322,-0.0026
5.323,0.0374
5.324,0.0415
5.325,0.1968
5.326,0.143
5.327,0.1108
5.328,0.0038
5.329,-0.0463
5.33,-0.2671
5.331,-0.3255
5.332,-0.4647
5.333,-0.5895
5.334,-0.6398
5.335,-0.6687
5.336,-0.7275
5.337,-0.6899
5.338,-0.5219
5.339,-0.4438
5.34,-0.3635
5.341,-0.1765
5.342,-0.0619
5.343,0.0159
5.344,0.0324
5.345,0.177
5.346,0.0476
5.347,0.0012
5.348,-0.0568
5.349,-0.1298
5.35,-0.1659
5.351,-0.2965
5.352,-0.3937
5.353,-0.5259
5.354,-0.5983
5.355,-0.6273
5.356,-0.6947
5.357,-0.6832
5.358,-0.5429
5.359,-0.4398
5.36,-0.3198
5.361,-0.2553
5.362,-0.1542
5.363,0.0237
5.364,0.0903
5.365,0.0804
5.366,0.1827
5.367,0.0123
5.368,-0.0479
5.369,-0.0867
5.37,-0.3182
5.371,-0.4199
5.372,-0.4404
5.373,-0.6394
5.374,-0.5416
5.375,-0.6781
5.376,-0.7452
5.377,-0.6739
5.378,-0.6284
5.379,-0.5384
5.38,-0.347
5.381,-0.1969
5.382,-0.155
5.383,-0.0074
5.384,0.0317
5.385,0.1126
5.386,0.0484
5.387,0.1027
5.388,-0.0668
5.389,-0.2134
5.39,-0.1809
5.391,-0.3736
5.392,-0.4905
5.393,-0.5296
5.394,-0.6493
5.395,-0.7267
5.396,-0.6778
5.397,-0.6449
5.398,-0.6456
5.399,-0.4074
5.4,-0.3164
5.401,-0.2585
5.402,-0.1576
5.403,-0.0076
5.404,0.0375
5.405,0.0411
5.406,0.0953
5.407,0.0269
5.408,-0.0168
5.409,-0.1117
5.41,-0.2566
5.411,-0.3452
5.412,-0.5291
5.413,-0.5899
5.414,-0.65
5.415,-0.6318
5.416,-0.6226
5.417,-0.6555
5.418,-0.6655
5.419,-0.576
5.42,-0.4027
5.421,-0.2029
5.422,-0.1953
5.423,-0.1077
5.424,0.0457
5.425,0.1168
5.426,-0.0335
5.427,0.0199
5.428,-0.075
5.429,-0.2395
5.43,-0.2431
5.431,-0.3141
5.432,-0.5599
5.433,-0.5943
5.434,-0.666
5.435,-0.6236
5.436,-0.759
5.437,-0.6682
5.438,-0.6366
5.439,-0.5168
5.44,-0.3827
5.441,-0.2649
5.442,-0.1765
5.443,-0.0225
5.444,0.1169
5.445,0.1289
5.446,0.0487
5.447,-0.013
5.448,-0.0129
5.449,-0.1016
5.45,-0.2831
5.451,-0.3992
5.452,-0.5264
5.453,-0.5629
5.454,-0.717
5.455,-0.7602
5.456,-0.6946
5.457,-0.6092
5.458,-0.6919
5.459,-0.4417
5.46,-0.3818
5.461,-0.2559
5.462,-0.1004
5.463,-0.0457
5.464,0.0493
5.465,0.1206
5.466,0.0765
5.467,0.0618
5.468,-0.0375
5.469,-0.1666
5.47,-0.2649
5.471,-0.2973
5.472,-0.5806
5.473,-0.6507
5.474,-0.6967
5.475,-0.7011
5.476,-0.7528
5.477,-0.724
5.478,-0.5523
5.479,-0.3632
5.48,-0.4159
5.481,-0.235
5.482,-0.1632
5.483,-0.0763
5.484,0.0506
5.485,0.0251
5.486,0.0549
5.487,0.0233
5.488,-0.0308
5.489,-0.1897
5.49,-0.3179
5.491,-0.4046
5.492,-0.4192
5.493,-0.6417
5.494,-0.6606
5.495,-0.7654
5.496,-0.7349
5.497,-0.6933
5.498,-0.5719
5.499,-0.4885
5.5,-0.4538
5.501,-0.3135
5.502,-0.1495
5.503,-0.0381
5.504,0.0867
5.505,-0.0064
5.506,0.0815
5.507,0.0359
5.508,-0.0499
5.509,-0.2044
5.51,-0.2423
5.511,-0.3912
5.512,-0.4349
5.513,-0.5538
5.514,-0.7628
5.515,-0.7675
5.516,-0.808
5.517,-0.7158
5.518,-0.5957
5.519,-0.5076
5.52,-0.3861
5.521,-0.2212
5.522,-0.1088
5.523,-0.0586
5.524,-0.0132
5.525,0.0824
5.526,-0.0027
5.527,0.0438
5.528,-0.0572
5.529,-0.1577
5.53,-0.2144
5.531,-0.5089
5.532,-0.5133
5.533,-0.6035
5.534,-0.7708
5.535,-0.7189
5.536,-0.6216
5.537,-0.7001
5.538,-0.709
5.539,-0.6417
5.54,-0.4156
5.541,-0.3408
5.542,-0.1593
5.543,-0.0231
5.544,0.0255
5.545,0.0809
5.546,0.0239
5.547,0.0593
5.548,-0.0633
5.549,-0.0755
5.55,-0.3306
5.551,-0.4155
5.552,-0.4988
5.553,-0.6655
5.554,-0.6843
5.555,-0.715
5.556,-0.7092
5.557,-0.6958
5.558,-0.554
5.559,-0.5227
5.56,-0.438
5.561,-0.2486
5.562,-0.1546
5.563,-0.0245
5.564,0.0908
5.565,0.1551
5.566,0.0734
5.567,-0.0548
5.568,-0.0419
5.569,-0.1563
5.57,-0.2513
5.571,-0.4876
5.572,-0.5167
5.573,-0.6052
5.574,-0.6747
5.575,-0.758
5.576,-0.6892
5.577,-0.739
5.578,-0.5844
5.579,-0.462
5.58,-0.37
5.581,-0.1907
5.582,-0.0959
5.583,-0.0481
5.584,0.0057
5.585,0.0897
5.586,0.0492
5.587,0.0267
5.588,-0.085
5.589,-0.1467
5.59,-0.2659
5.591,-0.3572
5.592,-0.513
5.593,-0.6553
5.594,-0.6867
5.595,-0.7319
5.596,-0.754
5.597,-0.6625
5.598,-0.5831
5.599,-0.5228
5.6,-0.3995
5.601,-0.3412
5.602,-0.1895
5.603,-0.0164
5.604,0.014
5.605,0.1036
5.606,0.0476
5.607,0.0153
5.608,-0.1571
5.609,-0.1422
5.61,-0.2304
5.611,-0.4422
5.612,-0.4412
5.613,-0.584
5.614,-0.6113
5.615,-0.6635
5.616,-0.648
5.617,-0.7236
5.618,-0.5839
5.619,-0.392
5.62,-0.3508
5.621,-0.2382
5.622,-0.1466
5.623,-0.0664
5.624,-0.013
5.625,0.1588
5.626,0.1446
5.627,0.0056
5.628,-0.1302
5.629,-0.121
5.63,-0.344
5.631,-0.4282
5.632,-0.5619
5.633,-0.6119
5.634,-0.732
5.635,-0.7695
5.636,-0.7212
5.637,-0.643
5.638,-0.6599
5.639,-0.4697
5.64,-0.3669
5.641,-0.2415
5.642,-0.1813
5.643,-0.0305
5.644,0.1465
5.645,0.0345
5.646,0.061
5.647,0.0211
5.648,-0.0121
5.649,-0.0763
5.65,-0.2896
5.651,-0.2814
5.652,-0.4711
5.653,-0.6666
5.654,-0.6583
5.655,-0.6655
5.656,-0.7756
5.657,-0.6973
5.658,-0.5449
5.659,-0.4613
5.66,-0.3896
5.661,-0.303
5.662,-0.0173
5.663,0.0064
5.664,0.0541
5.665,0.1258
5.666,0.0075
5.667,0.043
5.668,-0.0775
5.669,-0.0969
5.67,-0.264
5.671,-0.3814
5.672,-0.5754
5.673,-0.5908
5.674,-0.6357
5.675,-0.6485
5.676,-0.6311
5.677,-0.6256
5.678,-0.6068
5.679,-0.5376
5.68,-0.3481
5.681,-0.1827
5.682,-0.0994
5.683,-0.0259
5.684,0.1418
5.685,0.1166
5.686,0.0732
5.687,0.0376
5.688,-0.0278
5.689,-0.1609
5.69,-0.2292
5.691,-0.4277
5.692,-0.4752
5.693,-0.622
5.694,-0.6648
5.695,-0.7256
5.696,-0.7306
5.697,-0.6082
5.698,-0.5743
5.699,-0.4746
5.7,-0.2897
5.701,-0.1945
5.702,-0.067
5.703,-0.016
5.704,0.0234
5.705,0.1193
5.706,0.0109
5.707,0.0336
5.708,0.0351
5.709,-0.0632
5.71,-0.2091
5.711,-0.2757
5.712,-0.5332
5.713,-0.5258
5.714,-0.5672
5.715,-0.7136
5.716,-0.6714
5.717,-0.6451
5.718,-0.5476
5.719,-0.4313
5.72,-0.3208
5.721,-0.2666
5.722,-0.0848
5.723,0.0025
5.724,0.0282
5.725,0.0468
5.726,0.1018
5.727,0.1516
5.728,-0.0331
5.729,-0.1199
5.73,-0.1749
5.731,-0.4228
5.732,-0.4822
5.733,-0.4988
5.734,-0.63
5.735,-0.6759
5.736,-0.6583
5.737,-0.5777
5.738,-0.4474
5.739,-0.4329
5.74,-0.3267
5.741,-0.1842
5.742,-0.0389
5.743,0.0494
5.744,0.121
5.745,0.2493
5.746,0.1159
5.747,0.0775
5.748,0.0613
5.749,-0.0898
5.75,-0.2029
5.751,-0.3803
5.752,-0.4946
5.753,-0.5749
5.754,-0.6802
5.755,-0.5967
5.756,-0.6981
5.757,-0.6152
5.758,-0.5352
5.759,-0.3958
5.76,-0.3364
5.761,-0.1295
5.762,-0.0768
5.763,0.059
5.764,0.1629
5.765,0.1698
5.766,0.1001
5.767,0.1403
5.768,-0.0493
5.769,-0.1136
5.77,-0.2412
5.771,-0.3326
5.772,-0.449
5.773,-0.4201
5.774,-0.6182
5.775,-0.5296
5.776,-0.617
5.777,-0.52
5.778,-0.4789
5.779,-0.3822
5.78,-0.3103
5.781,-0.1035
5.782,-0.0122
5.783,0.0025
5.784,0.1013
5.785,0.1713
5.786,0.1178
5.787,0.1
5.788,-0.0073
5.789,0.0294
5.79,-0.1348
5.791,-0.3136
5.792,-0.3879
5.793,-0.5734
5.794,-0.5563
5.795,-0.5931
5.796,-0.5752
5.797,-0.6086
5.798,-0.535
5.799,-0.4387
5.8,-0.2616
5.801,-0.129
5.802,0.0168
5.803,0.1072
5.804,0.1371
5.805,0.2527
5.806,0.2118
5.807,0.1505
5.808,0.0573
5.809,-0.013
5.81,-0.0449
5.811,-0.3097
5.812,-0.4592
5.813,-0.4595
5.814,-0.5871
5.815,-0.649
5.816,-0.6098
5.817,-0.632
5.818,-0.4516
5.819,-0.4202
5.82,-0.3064
5.821,-0.1635
5.822,-0.011
5.823,0.0908
5.824,0.182
5.825,0.1577
5.826,0.1594
5.827,0.0868
5.828,0.0696
5.829,-0.014
5.83,-0.2383
5.831,-0.3686
5.832,-0.4219
5.833,-0.4944
5.834,-0.615
5.835,-0.5655
5.836,-0.5726
5.837,-0.6091
5.838,-0.402
5.839,-0.4035
5.84,-0.2883
5.841,-0.1288
5.842,0.0344
5.843,0.0541
5.844,0.1929
5.845,0.1831
5.846,0.2148
5.847,0.221
5.848,0.17
5.849,-0.0213
5.85,-0.1214
5.851,-0.2197
5.852,-0.334
5.853,-0.5131
5.854,-0.4095
5.855,-0.5552
5.856,-0.4848
5.857,-0.5078
5.858,-0.5475
5.859,-0.362
5.86,-0.1897
5.861,-0.1006
5.862,-0.0512
5.863,0.1345
5.864,0.0913
5.865,0.2655
5.866,0.276
5.867,0.1769
5.868,0.0929
5.869,0.0873
5.87,-0.152
5.871,-0.2835
5.872,-0.3374
5.873,-0.4642
5.874,-0.5309
5.875,-0.5717
5.876,-0.5514
5.877,-0.543
5.878,-0.3954
5.879,-0.3578
5.88,-0.2829
5.881,-0.1085
5.882,0.0254
5.883,0.1388
5.884,0.2042
5.885,0.1862
5.886,0.2355
5.887,0.1868
5.888,0.072
5.889,0.079
5.89,-0.1519
5.891,-0.3185
5.892,-0.347
5.893,-0.4211
5.894,-0.4981
5.895,-0.5133
5.896,-0.6035
5.897,-0.5085
5.898,-0.5322
5.899,-0.2752
5.9,-0.1469
5.901,-0.1735
5.902,-0.0154
5.903,0.1431
5.904,0.1987
5.905,0.3719
5.906,0.2024
5.907,0.2332
5.908,0.2037
5.909,-0.002
5.91,-0.1601
5.911,-0.1444
5.912,-0.2474
5.913,-0.4734
5.914,-0.6163
5.915,-0.524
5.916,-0.5468
5.917,-0.4874
5.918,-0.3732
5.919,-0.2379
5.92,-0.2244
5.921,0.0297
5.922,0.0159
5.923,0.1394
5.924,0.2456
5.925,0.3207
5.926,0.2644
5.927,0.2004
5.928,0.2411
5.929,0.0141
5.93,-0.0632
5.931,-0.1083
5.932,-0.2814
5.933,-0.4685
5.934,-0.3707
5.935,-0.4602
5.936,-0.5049
5.937,-0.3174
5.938,-0.4294
5.939,-0.2877
5.94,-0.2707
5.941,-0.0736
5.942,0.0835
5.943,0.2739
5.944,0.2697
5.945,0.3162
5.946,0.3257
5.947,0.3074
5.948,0.1834
5.949,0.1111
5.95,-0.0557
5.951,-0.1181
5.952,-0.2508
5.953,-0.4858
5.954,-0.437
5.955,-0.4523
5.956,-0.4603
5.957,-0.4491
5.958,-0.367
5.959,-0.2805
5.96,-0.0643
5.961,-0.116
5.962,0.1343
5.963,0.1489
5.964,0.2819
5.965,0.3107
5.966,0.1932
5.967,0.2342
5.968,0.1009
5.969,0.0759
5.97,-0.051
5.971,-0.2003
5.972,-0.2502
5.973,-0.3682
5.974,-0.4223
5.975,-0.534
5.976,-0.5124
5.977,-0.4888
5.978,-0.4057
5.979,-0.2411
5.98,-0.0742
5.981,0.0779
5.982,0.1207
5.983,0.2167
5.984,0.253
5.985,0.4015
5.986,0.3328
5.987,0.3277
5.988,0.2351
5.989,0.1242
5.99,-0.0924
5.991,-0.1718
5.992,-0.2387
5.993,-0.3844
5.994,-0.3683
5.995,-0.4868
5.996,-0.3988
5.997,-0.3887
5.998,-0.3707
5.999,-0.2498
6.0,-0.082
6.001,0.0259
6.002,0.2032
6.003,0.2568
6.004,0.3442
6.005,0.3857
6.006,0.2584
6.007,0.2603
6.008,0.2147
6.009,0.1164
6.01,0.0108
6.011,-0.1012
6.012,-0.1979
6.013,-0.3687
6.014,-0.4429
6.015,-0.514
6.016,-0.4531
6.017,-0.4129
6.018,-0.2953
6.019,-0.2561
6.02,-0.109
6.021,0.0144
6.022,0.1576
6.023,0.1933
6.024,0.3696
6.025,0.243
6.026,0.4132
6.027,0.3888
6.028,0.1634
6.029,0.1105
6.03,-0.0555
6.031,-0.1131
6.032,-0.2539
6.033,-0.2755
6.034,-0.456
6.035,-0.4496
6.036,-0.3791
6.037,-0.3614
6.038,-0.257
6.039,-0.2682
6.04,-0.0366
6.041,0.1765
6.042,0.176
6.043,0.3115
6.044,0.3462
6.045,0.4178
6.046,0.4317
6.047,0.3798
6.048,0.2023
6.049,0.1014
6.05,0.0613
6.051,-0.1411
6.052,-0.1382
6.053,-0.2181
6.054,-0.3959
6.055,-0.4673
6.056,-0.4037
6.057,-0.3739
6.058,-0.2723
6.059,-0.192
6.06,-0.0691
6.061,0.0143
6.062,0.1851
6.063,0.2804
6.064,0.3912
6.065,0.4394
6.066,0.3812
6.067,0.3405
6.068,0.3231
6.069,0.1238
6.07,0.0327
6.071,-0.0064
6.072,-0.1463
6.073,-0.3014
6.074,-0.3898
6.075,-0.426
6.076,-0.3818
6.077,-0.2862
6.078,-0.3066
6.079,-0.1515
6.08,0.0063
6.081,0.0317
6.082,0.1767
6.083,0.3392
6.084,0.428
6.085,0.416
6.086,0.36
6.087,0.3546
6.088,0.3416
6.089,0.1198
6.09,0.0857
6.091,-0.043
6.092,-0.157
6.093,-0.3085
6.094,-0.3408
6.095,-0.4412
6.096,-0.2606
6.097,-0.3905
6.098,-0.2375
6.099,-0.1233
6.1,-0.0568
6.101,0.0708
6.102,0.2014
6.103,0.3279
6.104,0.3653
6.105,0.3592
6.106,0.6268
6.107,0.2929
6.108,0.2695
6.109,0.2096
6.11,0.1243
6.111,-0.0733
6.112,-0.1826
6.113,-0.2422
6.114,-0.3488
6.115,-0.3339
6.116,-0.3477
6.117,-0.2962
6.118,-0.2051
6.119,-0.1506
6.12,0.0279
6.121,0.2915
6.122,0.2499
6.123,0.4028
6.124,0.5318
6.125,0.4793
6.126,0.4435
6.127,0.4391
6.128,0.3761
6.129,0.3379
6.13,0.0791
6.131,-0.0688
6.132,-0.1417
6.133,-0.2952
6.134,-0.3364
6.135,-0.4055
6.136,-0.2742
6.137,-0.3034
6.138,-0.1274
6.139,-0.1715
6.14,0.0354
6.141,0.0854
6.142,0.2647
6.143,0.3303
6.144,0.3851
6.145,0.5067
6.146,0.4784
6.147,0.4014
6.148,0.2308
6.149,0.2934
6.15,0.1084
6.151,0.0647
6.152,-0.1015
6.153,-0.203
6.154,-0.3241
6.155,-0.3291
6.156,-0.3705
6.157,-0.2267
6.158,-0.1196
6.159,-0.0322
6.16,0.0479
6.161,0.1261
6.162,0.3112
6.163,0.3236
6.164,0.5042
6.165,0.5058
6.166,0.3952
6.167,0.4016
6.168,0.3755
6.169,0.2532
6.17,0.1344
6.171,0.0261
6.172,-0.0701
6.173,-0.205
6.174,-0.2787
6.175,-0.2465
6.176,-0.4129
6.177,-0.1975
6.178,-0.2319
6.179,-0.1156
6.18,0.0291
6.181,0.1953
6.182,0.313
6.183,0.4564
6.184,0.4195
6.185,0.4906
6.186,0.4876
6.187,0.3976
6.188,0.3575
6.189,0.2689
6.19,0.1439
6.191,-0.0956
6.192,-0.0932
6.193,-0.2596
6.194,-0.2484
6.195,-0.3272
6.196,-0.2739
6.197,-0.2464
6.198,-0.2258
6.199,-0.0985
6.2,0.0383
6.201,0.1663
6.202,0.3712
6.203,0.3909
6.204,0.4934
6.205,0.591
6.206,0.4956
6.207,0.403
6.208,0.3878
6.209,0.3357
6.21,0.1553
6.211,-0.0246
6.212,-0.143
6.213,-0.1697
6.214,-0.2614
6.215,-0.2619
6.216,-0.2544
6.217,-0.2485
6.218,-0.2058
6.219,-0.0219
6.22,0.1405
6.221,0.1218
6.222,0.2521
6.223,0.335
6.224,0.4574
6.225,0.4529
6.226,0.5367
6.227,0.3743
6.228,0.4224
6.229,0.4268
6.23,0.2362
6.231,0.0986
6.232,-0.0762
6.233,-0.1529
6.234,-0.2108
6.235,-0.2567
6.236,-0.3702
6.237,-0.2775
6.238,-0.1661
6.239,-0.133
6.24,0.0363
6.241,0.3012
6.242,0.2702
6.243,0.5028
6.244,0.428
6.245,0.4957
6.246,0.597
6.247,0.5191
6.248,0.3145
6.249,0.319
6.25,0.2139
6.251,0.0231
6.252,-0.0588
6.253,-0.1408
6.254,-0.2345
6.255,-0.2608
6.256,-0.2679
6.257,-0.1842
6.258,-0.0585
6.259,0.0407
6.26,0.1068
6.261,0.1881
6.262,0.3327
6.263,0.4328
6.264,0.528
6.265,0.5376
6.266,0.5996
6.267,0.4965
6.268,0.4304
6.269,0.2972
6.27,0.2281
6.271,0.0686
6.272,-0.0837
6.273,-0.1369
6.274,-0.2411
6.275,-0.215
6.276,-0.2098
6.277,-0.1887
6.278,-0.1005
6.279,-0.0226
6.28,0.1251
6.281,0.3109
6.282,0.3452
6.283,0.4074
6.284,0.5667
6.285,0.4954
6.286,0.5686
6.287,0.4612
6.288,0.4927
6.289,0.2828
6.29,0.2637
6.291,0.1045
6.292,-0.0363
6.293,-0.0494
6.294,-0.1217
6.295,-0.1685
6.296,-0.2454
6.297,-0.2215
6.298,-0.0967
6.299,0.0729
6.3,0.1139
6.301,0.1857
6.302,0.4632
6.303,0.4716
6.304,0.5356
6.305,0.5329
6.306,0.6425
6.307,0.5445
6.308,0.4827
6.309,0.2716
6.31,0.2325
6.311,0.117
6.312,-0.0256
6.313,-0.0819
6.314,-0.1532
6.315,-0.2645
6.316,-0.2528
6.317,-0.1311
6.318,-0.0414
6.319,0.0396
6.32,0.1125
6.321,0.2396
6.322,0.494
6.323,0.4427
6.324,0.4731
6.325,0.6722
6.326,0.5886
6.327,0.5192
6.328,0.4375
6.329,0.3557
6.33,0.1829
6.331,0.0485
6.332,-0.028
6.333,-0.1282
6.334,-0.1999
6.335,-0.1651
6.336,-0.1645
6.337,-0.2237
6.338,-0.1374
6.339,-0.0712
6.34,0.1619
6.341,0.225
6.342,0.38
6.343,0.5153
6.344,0.5616
6.345,0.5725
6.346,0.5771
6.347,0.4782
6.348,0.4785
6.349,0.3381
6.35,0.2772
6.351,0.0729
6.352,-0.0914
6.353,-0.1549
6.354,-0.2565
6.355,-0.2426
6.356,-0.1554
6.357,-0.1038
6.358,-0.1511
6.359,0.0165
6.36,0.1434
6.361,0.235
6.362,0.3943
6.363,0.5088
6.364,0.6147
6.365,0.5489
6.366,0.5732
6.367,0.5463
6.368,0.4084
6.369,0.3173
6.37,0.1904
6.371,0.1042
6.372,-0.0484
6.373,0.046
6.374,-0.1531
6.375,-0.2015
6.376,-0.1386
6.377,-0.1919
6.378,-0.1245
6.379,0.0099
6.38,0.1414
6.381,0.3078
6.382,0.3986
6.383,0.4427
6.384,0.5895
6.385,0.6235
6.386,0.5712
6.387,0.5035
6.388,0.388
6.389,0.4578
6.39,0.3621
6.391,0.1774
6.392,-0.0085
6.393,-0.0336
6.394,-0.2494
6.395,-0.2051
6.396,-0.1842
6.397,-0.1877
6.398,-0.0274
6.399,0.0954
6.4,0.2115
6.401,0.2881
6.402,0.3714
6.403,0.4516
6.404,0.5301
6.405,0.59
6.406,0.5727
6.407,0.4643
6.408,0.4971
6.409,0.305
6.41,0.2088
6.411,0.1534
6.412,0.0107
6.413,-0.1356
6.414,-0.1194
6.415,-0.1858
6.416,-0.1842
6.417,-0.0845
6.418,-0.0862
6.419,0.0326
6.42,0.1631
6.421,0.3095
6.422,0.3839
6.423,0.4518
6.424,0.5489
6.425,0.6005
6.426,0.7201
6.427,0.5756
6.428,0.4671
6.429,0.347
6.43,0.2578
6.431,0.1532
6.432,0.0082
6.433,-0.0617
6.434,-0.1464
6.435,-0.1961
6.436,-0.137
6.437,-0.2092
6.438,-0.0313
6.439,0.0673
6.44,0.1748
6.441,0.4292
6.442,0.3315
6.443,0.4632
6.444,0.678
6.445,0.5636
6.446,0.5942
6.447,0.5394
6.448,0.4713
6.449,0.3728
6.45,0.24
6.451,0.1692
6.452,-0.0433
6.453,-0.1149
6.454,-0.097
6.455,-0.1282
6.456,-0.2679
6.457,-0.1427
6.458,-0.0759
6.459,0.1429
6.46,0.1609
6.461,0.2961
6.462,0.3995
6.463,0.5463
6.464,0.5845
6.465,0.6399
6.466,0.6945
6.467,0.5899
6.468,0.5405
6.469,0.4188
6.47,0.2204
6.471,0.1075
6.472,-0.0605
6.473,-0.118
6.474,-0.1303
6.475,-0.128
6.476,-0.0895
6.477,-0.0649
6.478,-0.0862
6.479,0.126
6.48,0.2003
6.481,0.3224
6.482,0.4519
6.483,0.5266
6.484,0.5143
6.485,0.6594
6.486,0.6055
6.487,0.5449
6.488,0.4985
6.489,0.4536
6.49,0.2628
6.491,0.2276
6.492,0.0504
6.493,-0.1116
6.494,-0.0346
6.495,-0.1239
6.496,-0.1436
6.497,-0.1272
6.498,-0.119
6.499,0.0866
6.5,0.1492
6.501,0.416
6.502,0.3908
6.503,0.4793
6.504,0.5496
6.505,0.6596
6.506,0.5774
6.507,0.6066
6.508,0.638
6.509,0.3204
6.51,0.2429
6.511,0.142
6.512,0.0701
6.513,-0.0334
6.514,-0.1385
6.515,-0.1032
6.516,-0.2257
6.517,-0.1473
6.518,-0.1152
6.519,0.0192
6.52,0.1173
6.521,0.3742
6.522,0.4262
6.523,0.5264
6.524,0.5681
6.525,0.5972
6.526,0.5726
6.527,0.6327
6.528,0.3932
6.529,0.3175
6.53,0.241
6.531,0.1603
6.532,-0.0629
6.533,-0.1426
6.534,-0.3242
6.535,-0.1745
6.536,-0.1885
6.537,-0.1615
6.538,-0.1383
6.539,0.0946
6.54,0.1306
6.541,0.3297
6.542,0.4631
6.543,0.4704
6.544,0.6252
6.545,0.6541
6.546,0.5863
6.547,0.5488
6.548,0.4106
6.549,0.3535
6.55,0.2175
6.551,0.1814
6.552,0.0922
6.553,-0.0761
6.554,-0.1283
6.555,-0.2325
6.556,-0.1305
6.557,-0.2107
6.558,-0.0275
6.559,0.0765
6.56,0.1391
6.561,0.2283
6.562,0.4621
6.563,0.481
6.564,0.5632
6.565,0.6198
6.566,0.5318
6.567,0.6086
6.568,0.4412
6.569,0.3439
6.57,0.269
6.571,0.1294
6.572,-0.0296
6.573,-0.1182
6.574,-0.1528
6.575,-0.2193
6.576,-0.2351
6.577,-0.1309
6.578,-0.1055
6.579,0.0878
6.58,0.2056
6.581,0.2148
6.582,0.4144
6.583,0.4617
6.584,0.6126
6.585,0.6146
6.586,0.604
6.587,0.5148
6.588,0.4608
6.589,0.3296
6.59,0.1857
6.591,0.1415
6.592,0.0094
6.593,-0.0718
6.594,-0.151
6.595,-0.1377
6.596,-0.2091
6.597,-0.1692
6.598,-0.1723
6.599,0.0024
6.6,0.2294
6.601,0.3053
6.602,0.4
6.603,0.42
6.604,0.6297
6.605,0.6497
6.606,0.6187
6.607,0.6234
6.608,0.4516
6.609,0.43
6.61,0.148
6.611,0.0735
6.612,-0.1665
6.613,-0.007
6.614,-0.1792
6.615,-0.258
6.616,-0.137
6.617,-0.2558
6.618,-0.0165
6.619,0.078
6.62,0.1063
6.621,0.4021
6.622,0.3828
6.623,0.3546
6.624,0.5387
6.625,0.6241
6.626,0.6579
6.627,0.4468
6.628,0.4426
6.629,0.3202
6.63,0.1386
6.631,0.1682
6.632,-0.0865
6.633,-0.0572
6.634,-0.1549
6.635,-0.1668
6.636,-0.1842
6.637,-0.0406
6.638,-0.0837
6.639,0.0247
6.64,0.0571
6.641,0.2387
6.642,0.4104
6.643,0.5481
6.644,0.4549
6.645,0.6396
6.646,0.6055
6.647,0.5319
6.648,0.5197
6.649,0.4013
6.65,0.1979
6.651,0.2584
6.652,0.1354
6.653,-0.1273
6.654,-0.2226
6.655,-0.0614
6.656,-0.3507
6.657,-0.1752
6.658,-0.0088
6.659,0.0901
6.66,0.2209
6.661,0.1554
6.662,0.4856
6.663,0.6222
6.664,0.5161
6.665,0.5892
6.666,0.5999
6.667,0.4792
6.668,0.4157
6.669,0.3172
6.67,0.0847
6.671,0.1285
6.672,-0.0578
6.673,0.0106
6.674,-0.2191
6.675,-0.3296
6.676,-0.3464
6.677,-0.1415
6.678,-0.0254
6.679,-0.03
6.68,-0.1144
6.681,0.1893
6.682,0.2632
6.683,0.4737
6.684,0.6498
6.685,0.5042
6.686,0.5547
6.687,0.3418
6.688,0.5445
6.689,0.2923
6.69,0.1176
6.691,0.0763
6.692,-0.0411
6.693,-0.0765
6.694,-0.2503
6.695,-0.46
6.696,-0.1503
6.697,-0.3804
6.698,-0.3035
6.699,0.0658
6.7,0.0979
6.701,0.3037
6.702,0.2977
6.703,0.4037
6.704,0.3745
6.705,0.4339
6.706,0.5626
6.707,0.7111
6.708,0.4578
6.709,0.3553
6.71,0.354
6.711,0.0618
6.712,-0.1163
6.713,-0.1486
6.714,0.001
6.715,-0.6503
6.716,-0.07
6.717,-0.3866
6.718,-0.1788
6.719,0.0987
6.72,-0.0167
6.721,0.6094
6.722,0.308
6.723,0.4752
6.724,0.5792
6.725,0.567
6.726,0.2812
6.727,0.6619
6.728,0.5158
6.729,0.344
6.73,0.3658
6.731,0.0833
6.732,-0.0492
6.733,-0.1072
6.734,-0.2917
6.735,-0.2651
6.736,-0.2759
6.737,-0.3248
6.738,-0.0432
6.739,-0.0842
6.74,0.0866
6.741,0.3149
6.742,0.4323
6.743,0.3298
6.744,0.1735
6.745,0.3839
6.746,0.6918
6.747,0.6753
6.748,0.4924
6.749,0.2351
6.75,0.0622
6.751,0.1434
6.752,-0.2366
6.753,-0.3455
6.754,-0.1719
6.755,-0.1681
6.756,-0.4218
6.757,-0.0151
6.758,0.0128
6.759,-0.1502
6.76,-0.0742
6.761,0.2377
6.762,0.4435
6.763,0.3696
6.764,0.463
6.765,0.5736
6.766,0.4227
6.767,0.8298
6.768,0.3424
6.769,0.2442
6.77,-0.2047
6.771,-0.0988
6.772,-0.0879
6.773,-0.2041
6.774,-0.225
6.775,-0.1281
6.776,-0.0767
6.777,-0.4879
6.778,-0.1751
6.779,-0.1008
6.78,-0.3426
6.781,0.0325
6.782,0.527
6.783,0.4068
6.784,0.532
6.785,0.5795
6.786,0.0353
6.787,-0.074
6.788,0.1359
6.789,0.2841
6.79,0.2167
6.791,0.1355
6.792,0.2909
6.793,-0.3595
6.794,-0.5218
6.795,-0.5254
6.796,-0.4282
6.797,-0.2618
6.798,-0.192
6.799,-0.3777
6.8,0.3366
6.801,-0.0118
6.802,0.6038
6.803,0.027
6.804,0.4537
6.805,0.7712
6.806,0.1612
6.807,0.6614
6.808,0.4109
6.809,0.115
6.81,-0.406
6.811,0.108
6.812,-0.3445
6.813,0.0625
6.814,-0.3589
6.815,-0.2361
6.816,-0.1342
6.817,-0.0019
6.818,-0.0847
6.819,-0.481
6.82,0.1561
6.821,0.422
6.822,0.3043
6.823,-0.1306
6.824,0.5389
6.825,0.7332
6.826,0.3557
6.827,0.596
6.828,-0.0183
6.829,0.4949
6.83,0.1467
6.831,0.2152
6.832,-0.1794
6.833,-0.4967
6.834,-0.3241
6.835,-0.4656
6.836,-0.6652
6.837,-0.0347
6.838,-0.1514
6.839,-0.6651
6.84,-0.2891
6.841,-0.4475
6.842,0.3079
6.843,-0.0182
6.844,0.6108
6.845,0.6302
6.846,0.0078
6.847,0.3785
6.848,0.5366
6.849,0.0491
6.85,0.0978
6.851,-0.2914
6.852,-0.1894
6.853,0.0119
6.854,0.0504
6.855,-0.7545
6.856,-0.2406
6.857,-0.1207
6.858,-0.2438
6.859,-0.3015
6.86,-0.0557
6.861,0.3107
6.862,-0.1752
6.863,-0.1172
6.864,-0.0287
6.865,0.5165
6.866,0.4932
6.867,0.727
6.868,0.2305
6.869,0.214
6.87,0.1995
6.871,0.7512
6.872,-0.1735
6.873,-1.0659
6.874,-0.2295
6.875,-0.1856
6.876,0.163
6.877,-0.4118
6.878,-0.0097
6.879,-0.5599
6.88,0.1078
6.881,0.1697
6.882,0.077
6.883,0.2852
6.884,0.7353
6.885,0.0443
6.886,1.0762
6.887,1.2734
6.888,0.8719
6.889,0.2178
6.89,-0.1591
6.891,0.2667
6.892,0.5619
6.893,0.0185
6.894,0.2767
6.895,-0.4264
6.896,-0.3231
6.897,0.4087
6.898,0.1626
6.899,-0.7233
6.9,-0.6752
6.901,-0.0825
6.902,0.2452
6.903,1.1752
6.904,-0.0501
6.905,0.526
6.906,0.4907
6.907,0.1811
6.908,-0.5509
6.909,0.3994
6.91,-0.4459
6.911,-0.7209
6.912,-0.2972
6.913,-0.3919
6.914,-0.3736
6.915,-0.677
6.916,-0.0774
6.917,0.611
6.918,-0.4741
6.919,-0.8871
6.92,0.0899
6.921,-0.2647
6.922,-0.4576
6.923,0.5879
6.924,0.4666
6.925,0.976
6.926,0.4103
6.927,0.3075
6.928,-0.1937
6.929,-0.3945
6.93,0.8147
6.931,-0.233
6.932,0.1122
6.933,-0.3241
6.934,-0.5236
6.935,-1.0995
6.936,-0.3737
6.937,-0.0967
6.938,-1.027
6.939,-0.5335
6.94,0.0999
6.941,0.2549
6.942,0.4338
6.943,-0.4156
6.944,-0.3961
6.945,0.6588
6.946,0.3423
6.947,0.8072
6.948,0.9319
6.949,0.9166
6.95,1.6128
6.951,-0.1646
6.952,-0.2366
6.953,-0.3599
6.954,0.3189
6.955,-0.4989
6.956,-0.6124
6.957,0.1534
6.958,-0.3462
6.959,-0.4696
6.96,-0.0274
6.961,-0.3396
6.962,0.5354
6.963,-0.8232
6.964,-0.4544
6.965,0.4346
6.966,0.1235
6.967,0.1685
6.968,1.211
6.969,0.9664
6.97,0.2234
6.971,0.6481
6.972,-1.0628
6.973,-0.7089
6.974,1.3068
6.975,0.1887
6.976,-0.0594
6.977,-0.634
6.978,-0.3596
6.979,-0.6436
6.98,-0.4277
6.981,0.2263
6.982,0.7061
6.983,-0.1399
6.984,0.0533
6.985,1.1915
6.986,0.7838
6.987,0.5431
6.988,0.8989
6.989,-0.9321
6.99,0.205
6.991,-0.0801
6.992,-0.8042
6.993,-0.4077
6.994,-0.5586
6.995,-0.4002
6.996,0.1271
6.997,-0.4411
6.998,0.104
6.999,-0.4593
7.0,-0.6434
7.001,-1.3387
7.002,0.034
7.003,0.1323
7.004,-0.3858
7.005,0.2403
7.006,0.6137
7.007,-0.1297
7.008,0.5222
7.009,-0.219
7.01,0.1568
7.011,-1.742
7.012,0.2365
7.013,0.1712
7.014,-0.9323
7.015,-0.9678
7.016,0.4237
7.017,-1.5161
7.018,-0.9706
7.019,0.5541
7.02,-0.0959
7.021,0.6334
7.022,-1.647
7.023,-0.1226
7.024,1.6114
7.025,0.3774
7.026,-0.668
7.027,0.0502
7.028,-0.0969
7.029,-1.1619
7.03,-0.0151
7.031,-0.6516
7.032,-0.4022
7.033,-1.4939
7.034,-1.5196
7.035,-1.4964
7.036,-0.9477
7.037,-0.2238
7.038,0.0251
7.039,-0.6
7.04,-0.4589
7.041,-0.1373
7.042,0.4551
7.043,0.3988
7.044,0.3292
7.045,-0.3489
7.046,1.9957
7.047,0.7972
7.048,-0.8427
7.049,0.5061
7.05,0.6051
7.051,-1.6852
7.052,0.3124
7.053,0.1476
7.054,0.0333
7.055,-2.0303
7.056,-0.1324
7.057,-0.956
7.058,0.4363
7.059,-0.1771
7.06,0.6128
7.061,-0.2122
7.062,1.0839
7.063,0.4043
7.064,1.1559
7.065,-0.9553
7.066,-0.9102
7.067,2.011
7.068,-0.4269
7.069,-0.4125
7.07,2.2406
7.071,-0.2576
7.072,0.2919
7.073,0.2845
7.074,0.7717
7.075,-2.2025
7.076,-0.1382
7.077,-0.1565
7.078,0.8818
7.079,-0.4577
7.08,-0.5203
7.081,-0.5963
7.082,0.8183
7.083,-0.2578
7.084,-0.7023
7.085,-0.92
7.086,-0.057
7.087,-0.3394
7.088,0.2661
7.089,-0.7513
7.09,-0.1932
7.091,-1.0922
7.092,-0.4686
7.093,-0.8148
7.094,-1.0312
7.095,-1.0702
7.096,-0.9083
7.097,-0.2554
7.098,-0.2131
7.099,0.5584
7.1,-1.2503
7.101,-0.5214
7.102,-0.2705
7.103,0.6401
7.104,1.6335
7.105,-0.364
7.106,0.2389
7.107,-0.8896
7.108,0.3926
7.109,0.6425
7.11,-1.352
7.111,0.442
7.112,-0.7755
7.113,-0.0284
7.114,-1.4408
7.115,-0.8991
7.116,-0.2692
7.117,-0.4563
7.118,-0.7628
7.119,-0.8719
7.12,0.1054
7.121,-0.2961
7.122,-0.4116
7.123,0.4898
7.124,-0.713
7.125,0.1373
7.126,0.588
7.127,-0.3887
7.128,-0.1424
7.129,-0.6232
7.13,-1.3338
7.131,0.4844
7.132,-1.8809
7.133,0.4623
7.134,-0.0116
7.135,-0.6635
7.136,0.0196
7.137,0.5646
7.138,0.6906
7.139,-1.3605
7.14,0.1647
7.141,0.3196
7.142,-0.9226
7.143,-1.4088
7.144,0.8142
7.145,-1.4032
7.146,0.8876
7.147,-0.2307
7.148,-0.1201
7.149,-1.2507
7.15,-0.267
7.151,-0.871
7.152,0.6279
7.153,-1.5259
7.154,-1.2495
7.155,-0.7308
7.156,-1.6526
7.157,-0.8955
7.158,-0.9658
7.159,0.8193
7.16,-0.7661
7.161,0.3023
7.162,-0.1629
7.163,-0.9259
7.164,1.287
7.165,0.0493
7.166,0.5251
7.167,1.7125
7.168,0.9576
7.169,-0.2429
7.17,1.0958
7.171,-0.9
7.172,-1.1398
7.173,-0.0335
7.174,-2.4306
7.175,0.2097
7.176,-2.4281
7.177,-1.0778
7.178,-0.8193
7.179,-0.4648
7.18,-1.4148
7.181,0.1237
7.182,0.2183
7.183,0.7764
7.184,-0.6832
7.185,1.6238
7.186,0.2013
7.187,0.5772
7.188,-1.1533
7.189,1.684
7.19,-0.3909
7.191,1.7729
7.192,-0.2509
7.193,-1.4007
7.194,0.8104
7.195,-0.5467
7.196,-1.8606
7.197,-0.4926
7.198,0.12
7.199,-0.6959
7.2,-0.4658
7.201,0.1896
7.202,0.3653
7.203,0.157
7.204,0.6495
7.205,0.1585
7.206,-0.7892
7.207,-0.2954
7.208,-1.3837
7.209,0.7467
7.21,0.0437
7.211,-0.4344
7.212,-0.638
7.213,-1.215
7.214,-2.3416
7.215,-0.6904
7.216,0.1009
7.217,-0.4852
7.218,-0.3017
7.219,-0.8996
7.22,-0.2119
7.221,-0.6029
7.222,-0.0128
7.223,0.2752
7.224,-0.445
7.225,-0.3029
7.226,0.239
7.227,-3.018
7.228,0.7156
7.229,2.0332
7.23,-0.0085
7.231,0.291
7.232,0.7117
7.233,-3.7545
7.234,-1.1127
7.235,-3.1632
7.236,-0.7693
7.237,0.3694
7.238,-0.6032
7.239,-0.5328
7.24,-2.5483
7.241,-0.3731
7.242,0.8398
7.243,1.7834
7.244,1.3221
7.245,0.1645
7.246,0.113
7.247,1.7632
7.248,1.4462
7.249,-0.0384
7.25,2.6612
7.251,-0.8059
7.252,1.2214
7.253,-0.9455
7.254,-2.4047
7.255,1.2031
7.256,-1.1107
7.257,-1.5281
7.258,-0.0827
7.259,-1.1226
7.26,-1.2817
7.261,-2.0882
7.262,-0.6903
7.263,-1.194
7.264,-0.9527
7.265,-1.7256
7.266,-0.0418
7.267,0.2726
7.268,2.9749
7.269,-0.6622
7.27,-0.5951
7.271,-0.2637
7.272,-0.772
7.273,-0.6277
7.274,-0.1604
7.275,-0.7862
7.276,-3.2833
7.277,-1.2524
7.278,0.3653
7.279,-0.7329
7.28,0.254
7.281,0.1058
7.282,0.1582
7.283,1.2593
7.284,-0.2887
7.285,0.7055
7.286,-1.0905
7.287,2.143
7.288,1.1436
7.289,-1.0714
7.29,0.8576
7.291,0.1115
7.292,1.2012
7.293,0.5501
7.294,0.5459
7.295,0.8172
7.296,-0.4773
7.297,-2.7253
7.298,-0.1614
7.299,-2.2867
7.3,-1.1853
7.301,-1.6564
7.302,0.2102
7.303,-1.6335
7.304,0.1714
7.305,1.7349
7.306,0.3925
7.307,-1.0068
7.308,-0.6559
7.309,-0.1255
7.31,1.5312
7.311,-1.4601
7.312,-1.0127
7.313,0.7358
7.314,-2.8974
7.315,-1.178
7.316,0.7177
7.317,-0.2359
7.318,-0.3074
7.319,-0.4099
7.32,-0.5861
7.321,-0.9436
7.322,-2.1073
7.323,0.2168
7.324,-1.1969
7.325,0.1099
7.326,-1.7813
7.327,0.1435
7.328,-1.3765
7.329,-0.2798
7.33,1.7432
7.331,0.4339
7.332,-2.2334
7.333,0.1066
7.334,1.0041
7.335,-1.0549
7.336,-0.9266
7.337,-0.4529
7.338,-0.2578
7.339,0.9578
7.34,0.3186
7.341,-2.3844
7.342,1.4556
7.343,1.047
7.344,-0.1671
7.345,-0.2619
7.346,-0.7338
7.347,-0.6516
7.348,0.2207
7.349,-0.2079
7.35,-0.3423
7.351,-0.7476
7.352,-1.3777
7.353,-2.5255
7.354,-0.839
7.355,-2.4097
7.356,-1.5068
7.357,-0.038
7.358,-1.2809
7.359,-0.8561
7.36,-1.6583
7.361,-0.1182
7.362,-0.4981
7.363,0.0332
7.364,-0.6798
7.365,-1.1725
7.366,0.5895
7.367,1.261
7.368,0.6907
7.369,-1.8496
7.37,-2.4954
7.371,0.8794
7.372,-0.2861
7.373,-1.5396
7.374,-1.7199
7.375,-0.0388
7.376,-0.3544
7.377,-2.0262
7.378,-0.6766
7.379,0.5077
7.38,-1.3585
7.381,-0.4165
7.382,-1.9651
7.383,0.3506
7.384,-0.8591
7.385,0.428
7.386,-1.4081
7.387,0.3313
7.388,0.2957
7.389,-0.1199
7.39,-0.2865
7.391,-0.1521
7.392,-3.3259
7.393,-1.2444
7.394,-0.7377
7.395,0.1456
7.396,-0.0084
7.397,-1.1779
7.398,-0.5918
7.399,-1.7835
7.4,-0.4062
7.401,-0.1472
7.402,0.624
7.403,1.4497
7.404,2.4374
7.405,-0.1724
7.406,1.4254
7.407,-0.3721
7.408,-1.1517
7.409,1.6016
7.41,-0.3008
7.411,-1.031
7.412,1.4481
7.413,0.2618
7.414,-1.2568
7.415,-2.6891
7.416,-1.3052
7.417,-0.787
7.418,-1.0149
7.419,-0.7773
7.42,-0.9792
7.421,0.7497
7.422,0.5363
7.423,-1.2175
7.424,0.2696
7.425,-2.7729
7.426,-0.0722
7.427,0.4324
7.428,1.5643
7.429,-0.8442
7.43,-0.8202
7.431,1.0816
7.432,-0.677
7.433,-1.0666
7.434,-1.8032
7.435,0.8152
7.436,0.1146
7.437,0.1098
7.438,-1.2693
7.439,-0.9307
7.44,0.2362
7.441,0.2818
7.442,-1.4697
7.443,-0.5011
7.444,-0.3195
7.445,1.2771
7.446,-1.3522
7.447,0.6459
7.448,1.0846
7.449,-1.9027
7.45,1.5167
7.451,-0.1337
7.452,0.4985
7.453,-1.2789
7.454,-1.4501
7.455,1.5325
7.456,-0.7526
7.457,-2.1919
7.458,-1.0552
7.459,-0.0635
7.46,-0.7466
7.461,-0.3288
7.462,1.3607
7.463,0.6536
7.464,-0.1062
7.465,0.4225
7.466,-0.4116
7.467,1.4458
7.468,0.1852
7.469,1.7733
7.47,-0.1057
7.471,-0.4326
7.472,-0.5823
7.473,-2.0873
7.474,-1.0181
7.475,-1.5904
7.476,0.3448
7.477,-0.163
7.478,2.029
7.479,-0.7761
7.48,1.1427
7.481,-2.2391
7.482,1.7426
7.483,0.4635
7.484,0.8315
7.485,-0.5774
7.486,0.8585
7.487,1.7419
7.488,-0.3169
7.489,0.2532
7.49,0.1672
7.491,-0.1331
7.492,0.3983
7.493,0.4765
7.494,1.1707
7.495,-2.944
7.496,-1.291
7.497,-1.7674
7.498,-2.0937
7.499,-1.0567
7.5,-0.5587
7.501,0.2879
7.502,1.1227
7.503,1.0486
7.504,-1.7298
7.505,-2.1133
7.506,-0.4576
7.507,-2.2263
7.508,0.9763
7.509,-2.4283
7.51,-1.8449
7.511,-1.4898
7.512,-0.0226
7.513,-2.0719
7.514,-2.5802
7.515,-1.4649
7.516,-0.2388
7.517,-1.6653
7.518,-0.443
7.519,-0.7254
7.52,-0.1658
7.521,1.4551
7.522,-0.2456
7.523,0.0758
7.524,0.4107
7.525,1.4433
7.526,1.9769
7.527,0.6416
7.528,1.1493
7.529,-1.0561
7.53,-0.7353
7.531,-2.3743
7.532,-0.8824
7.533,1.0286
7.534,0.3425
7.535,-2.5386
7.536,-2.005
7.537,-0.9889
7.538,-0.5529
7.539,1.0535
7.54,-0.8475
7.541,-0.2357
7.542,0.0045
7.543,0.3255
7.544,0.4723
7.545,-1.6291
7.546,0.7861
7.547,-0.0601
7.548,0.4194
7.549,0.8346
7.55,-0.3699
7.551,0.5185
7.552,0.2252
7.553,-0.3006
7.554,-0.6333
7.555,-0.8984
7.556,-1.246
7.557,-0.6925
7.558,-1.3683
7.559,-2.0818
7.56,-1.2108
7.561,0.4602
7.562,0.2822
7.563,0.8894
7.564,3.4429
7.565,0.532
7.566,-0.1652
7.567,-0.6682
7.568,1.8333
7.569,1.5093
7.57,0.1718
7.571,0.1381
7.572,-0.6739
7.573,2.3498
7.574,-1.8601
7.575,-0.4069
7.576,-1.0484
7.577,-0.3283
7.578,0.0464
7.579,-0.081
7.58,-0.896
7.581,-1.3422
7.582,-0.5793
7.583,-1.6207
7.584,-0.8106
7.585,0.7301
7.586,-1.7428
7.587,-1.1418
7.588,-1.0282
7.589,-0.1459
7.59,-0.4091
7.591,0.6498
7.592,-0.4797
7.593,-2.1543
7.594,-2.3503
7.595,-1.547
7.596,-2.3616
7.597,-0.4749
7.598,-2.3478
7.599,0.5425
7.6,0.6682
7.601,2.4696
7.602,-0.3245
7.603,0.8895
7.604,2.3384
7.605,0.0611
7.606,-0.6831
7.607,-0.3234
7.608,-0.4118
7.609,-1.0602
7.61,-0.0461
7.611,0.3788
7.612,0.1422
7.613,1.4627
7.614,0.3022
7.615,0.6307
7.616,-2.2496
7.617,-0.9199
7.618,0.3013
7.619,-1.279
7.62,-2.4003
7.621,-0.9899
7.622,-1.144
7.623,-0.0231
7.624,-0.3472
7.625,-1.0885
7.626,-0.3089
7.627,-1.0732
7.628,-0.0681
7.629,-0.212
7.63,-0.3532
7.631,-0.618
7.632,-0.1316
7.633,0.1865
7.634,-3.2076
7.635,-0.8101
7.636,-2.9018
7.637,-0.1081
7.638,-0.6005
7.639,-0.9155
7.64,0.8046
7.641,1.7162
7.642,-2.0852
7.643,0.6224
7.644,1.3964
7.645,1.4581
7.646,1.7336
7.647,1.416
7.648,0.9452
7.649,1.2574
7.65,-1.5413
7.651,-2.2826
7.652,-1.0895
7.653,-0.603
7.654,-0.5459
7.655,0.2924
7.656,0.3199
7.657,0.1096
7.658,0.0125
7.659,-0.3104
7.66,0.9369
7.661,0.0216
7.662,0.0631
7.663,-0.8957
7.664,-1.2547
7.665,-0.3949
7.666,-0.5987
7.667,-1.851
7.668,-1.1717
7.669,0.3303
7.67,-0.734
7.671,-1.9374
7.672,0.1879
7.673,0.8923
7.674,1.7346
7.675,-0.9281
7.676,0.0298
7.677,0.0398
7.678,-0.9882
7.679,-0.194
7.68,0.0773
7.681,0.9355
7.682,-0.9882
7.683,-0.4572
7.684,0.7136
7.685,-0.7554
7.686,0.1098
7.687,-1.2606
7.688,-0.4905
7.689,0.5753
7.69,-2.7823
7.691,-0.5214
7.692,-0.8979
7.693,-0.8702
7.694,-0.3017
7.695,0.0158
7.696,0.4099
7.697,-1.0373
7.698,-2.0224
7.699,-0.7074
7.7,0.8109
7.701,-0.4071
7.702,-1.0475
7.703,-1.0702
7.704,-1.3003
7.705,2.1006
7.706,-0.1481
7.707,1.0888
7.708,1.6112
7.709,-0.6293
7.71,-0.7656
7.711,-0.6368
7.712,-1.8057
7.713,-0.9251
7.714,0.1182
7.715,0.3833
7.716,0.4999
7.717,-0.1006
7.718,-0.8404
7.719,-0.7851
7.72,-0.7267
7.721,0.6307
7.722,-0.7008
7.723,1.2932
7.724,1.8919
7.725,-0.0512
7.726,1.1391
7.727,0.0648
7.728,0.6032
7.729,-1.5695
7.73,-0.7595
7.731,-1.3205
7.732,-1.3483
7.733,-0.6111
7.734,-0.3957
7.735,-1.7115
7.736,-1.6441
7.737,-2.7006
7.738,0.4939
7.739,-1.3153
7.74,0.6724
7.741,-1.4534
7.742,-0.3645
7.743,1.2172
7.744,0.6448
7.745,1.1739
7.746,-0.7269
7.747,-0.6452
7.748,0.0874
7.749,0.1347
7.75,-1.3105
7.751,-0.927
7.752,0.1028
7.753,0.0981
7.754,0.6247
7.755,0.3773
7.756,-0.2039
7.757,0.9719
7.758,-0.6864
7.759,-0.5178
7.76,-0.4374
7.761,-0.0337
7.762,0.234
7.763,1.6816
7.764,-0.0876
7.765,0.062
7.766,0.6531
7.767,-0.0106
7.768,1.0127
7.769,0.8151
7.77,0.1971
7.771,0.0244
7.772,1.164
7.773,0.4745
7.774,-0.2068
7.775,-1.1456
7.776,-1.2973
7.777,0.5105
7.778,-0.6557
7.779,-1.4559
7.78,-1.0611
7.781,1.6378
7.782,-1.6015
7.783,-1.783
7.784,-0.8732
7.785,0.3153
7.786,0.1564
7.787,-0.8526
7.788,-0.5357
7.789,0.1244
7.79,1.4206
7.791,0.0799
7.792,-0.4732
7.793,0.0758
7.794,0.1465
7.795,0.056
7.796,-0.8883
7.797,-2.2507
7.798,-0.2147
7.799,0.5344
7.8,0.7689
7.801,0.8364
7.802,1.259
7.803,0.5616
7.804,0.5756
7.805,1.6982
7.806,-0.4333
7.807,-0.0946
7.808,-1.5721
7.809,0.3707
7.81,-0.1755
7.811,-0.9828
7.812,-1.1916
7.813,-0.7634
7.814,-1.8085
7.815,-0.6701
7.816,-1.8423
7.817,-2.0637
7.818,0.639
7.819,1.1942
7.82,0.2488
7.821,0.2838
7.822,0.1304
7.823,-0.3732
7.824,0.6633
7.825,1.5181
7.826,0.924
7.827,0.9113
7.828,-1.1724
7.829,0.162
7.83,0.9203
7.831,0.9202
7.832,-2.7559
7.833,-0.37
7.834,-1.0575
7.835,-0.4024
7.836,-1.3843
7.837,-0.4232
7.838,-1.1735
7.839,0.1436
7.84,-0.327
7.841,0.3798
7.842,-1.3319
7.843,1.065
7.844,1.5064
7.845,-0.0445
7.846,-0.4649
7.847,1.1568
7.848,1.3755
7.849,-0.92
7.85,-0.0162
7.851,-0.6906
7.852,-1.3625
7.853,-0.5116
7.854,0.68
7.855,-0.9151
7.856,-1.5875
7.857,0.8459
7.858,-1.1694
7.859,0.8193
7.86,-0.305
7.861,-0.5249
7.862,-1.0891
7.863,-0.0337
7.864,0.2403
7.865,0.6946
7.866,0.4217
7.867,0.0325
7.868,0.3311
7.869,0.0669
7.87,0.4894
7.871,0.5756
7.872,0.5818
7.873,-0.1719
7.874,-0.8364
7.875,-0.9644
7.876,0.0661
7.877,1.061
7.878,0.4366
7.879,1.0461
7.88,-0.4064
7.881,0.0551
7.882,0.9181
7.883,-0.6871
7.884,0.4699
7.885,0.6013
7.886,0.8933
7.887,-0.3758
7.888,-0.533
7.889,0.326
7.89,0.0012
7.891,-1.7338
7.892,0.267
7.893,-0.4029
7.894,-0.9872
7.895,1.4943
7.896,-0.8872
7.897,0.3154
7.898,-1.1187
7.899,0.0893
7.9,-0.168
7.901,0.9898
7.902,0.6087
7.903,-1.1263
7.904,0.9521
7.905,-0.1606
7.906,1.0256
7.907,-0.6888
7.908,0.031
7.909,0.0813
7.91,1.3847
7.911,-2.0974
7.912,-0.7602
7.913,-0.6885
7.914,-1.1306
7.915,-1.0854
7.916,1.0416
7.917,-0.2584
7.918,-1.0771
7.919,-0.4364
7.92,-2.0469
7.921,0.2016
7.922,-1.2986
7.923,0.1315
7.924,1.1202
7.925,0.8986
7.926,0.1117
7.927,1.1835
7.928,0.5196
7.929,-0.0071
7.93,-0.3222
7.931,-0.6736
7.932,-0.4936
7.933,-0.7068
7.934,0.5802
7.935,-0.7025
7.936,-0.9146
7.937,-1.3654
7.938,-0.6712
7.939,0.3961
7.94,0.7076
7.941,-0.5124
7.942,-0.3344
7.943,-0.4136
7.944,1.3005
7.945,-0.3325
7.946,0.5082
7.947,0.3961
7.948,0.0874
7.949,0.1418
7.95,-0.6477
7.951,-0.9421
7.952,-0.5001
7.953,-0.2104
7.954,0.6206
7.955,-0.5032
7.956,-0.2702
7.957,-0.0405
7.958,-0.717
7.959,-1.5977
7.96,0.2083
7.961,0.0735
7.962,0.4807
7.963,0.5603
7.964,0.3647
7.965,0.7388
7.966,0.9309
7.967,0.952
7.968,-0.4791
7.969,0.4524
7.97,-0.5981
7.971,-1.0563
7.972,-1.0257
7.973,-1.8035
7.974,-1.6483
7.975,-1.2923
7.976,-0.4002
7.977,-0.7315
7.978,0.1116
7.979,-0.3831
7.98,0.4219
7.981,0.5361
7.982,-0.4832
7.983,-1.4645
7.984,-0.3594
7.985,-0.042
7.986,-0.2783
7.987,1.2118
7.988,-0.1037
7.989,0.3202
7.99,0.0757
7.991,-0.4217
7.992,-0.192
7.993,-0.8748
7.994,0.4797
7.995,0.4818
7.996,-0.8479
7.997,-0.4327
7.998,0.2978
7.999,0.0914
8.0,0.4931
8.001,0.0688
8.002,-0.9035
8.003,-0.0957
8.004,0.4259
8.005,0.3647
8.006,-0.1235
8.007,-0.3014
8.008,0.0919
8.009,-0.4332
8.01,-0.5141
8.011,0.0656
8.012,-0.142
8.013,0.6583
8.014,0.7717
8.015,-0.8321
8.016,-0.5518
8.017,0.0727
8.018,-0.7034
8.019,0.8675
8.02,0.0165
8.021,0.4417
8.022,0.6689
8.023,0.7831
8.024,0.1924
8.025,-0.6739
8.026,-0.0432
8.027,0.8453
8.028,-0.0108
8.029,-0.459
8.03,0.2893
8.031,-0.5379
8.032,0.3457
8.033,-1.0838
8.034,-0.0145
8.035,-0.0007
8.036,-0.0188
8.037,-0.6452
8.038,-0.2002
8.039,-0.6019
8.04,0.7573
8.041,1.1445
8.042,0.0834
8.043,-0.439
8.044,0.2115
8.045,0.6387
8.046,1.242
8.047,0.9217
8.048,-0.0043
8.049,0.4489
8.05,-0.5164
8.051,0.0341
8.052,-0.1457
8.053,-0.2113
8.054,-0.7409
8.055,-0.336
8.056,-0.1029
8.057,-0.5091
8.058,-0.2333
8.059,-0.1256
8.06,-0.3261
8.061,-0.1554
8.062,0.203
8.063,0.5006
8.064,-0.1867
8.065,0.0637
8.066,0.3791
8.067,0.4148
8.068,0.2469
8.069,-0.644
8.07,-1.1654
8.071,0.3674
8.072,-0.5662
8.073,-0.3192
8.074,-0.8188
8.075,-0.3525
8.076,-0.3345
8.077,-0.845
8.078,-0.5342
8.079,-0.0766
8.08,0.0552
8.081,0.682
8.082,-0.1045
8.083,-0.1756
8.084,0.4018
8.085,0.6766
8.086,0.2638
8.087,0.7554
8.088,-0.2707
8.089,0.5045
8.09,0.559
8.091,-0.9058
8.092,0.2175
8.093,-0.0886
8.094,-0.2271
8.095,0.629
8.096,-0.5871
8.097,-0.1292
8.098,-0.1448
8.099,-0.527
8.1,0.3453
8.101,0.0652
8.102,0.0244
8.103,0.2066
8.104,0.4381
8.105,0.4784
8.106,0.5778
8.107,0.0921
8.108,0.131
8.109,0.9091
8.11,0.6613
8.111,0.0347
8.112,-0.6184
8.113,0.5509
8.114,-1.1918
8.115,-0.478
8.116,0.3785
8.117,-0.3244
8.118,-0.4101
8.119,-0.3766
8.12,-0.2557
8.121,0.4768
8.122,0.3813
8.123,0.196
8.124,0.4917
8.125,-0.2617
8.126,0.0837
8.127,0.6135
8.128,-0.0696
8.129,0.5502
8.13,-0.099
8.131,-0.329
8.132,-0.2296
8.133,-0.3898
8.134,-0.3376
8.135,-1.2285
8.136,-0.2728
8.137,-0.584
8.138,-0.8493
8.139,0.2109
8.14,-0.012
8.141,0.2386
8.142,-0.0434
8.143,0.1376
8.144,0.4455
8.145,0.3017
8.146,0.5184
8.147,0.3024
8.148,0.3895
8.149,0.2474
8.15,-0.3915
8.151,-0.183
8.152,0.1833
8.153,-0.846
8.154,0.6626
8.155,-0.2968
8.156,-0.193
8.157,-0.1825
8.158,-0.8548
8.159,-0.6199
8.16,0.2321
8.161,-0.396
8.162,0.5197
8.163,0.4175
8.164,0.3407
8.165,0.5417
8.166,0.6191
8.167,0.4764
8.168,0.0927
8.169,-0.0448
8.17,0.2553
8.171,-0.3338
8.172,-0.0646
8.173,-0.4327
8.174,0.0534
8.175,0.1263
8.176,-0.1345
8.177,-0.0251
8.178,-0.0408
8.179,0.2075
8.18,0.4171
8.181,0.1757
8.182,0.1433
8.183,0.9245
8.184,0.3186
8.185,0.4512
8.186,-0.1337
8.187,0.4533
8.188,0.0616
8.189,0.2232
8.19,-0.0251
8.191,-0.0827
8.192,-0.1125
8.193,0.1372
8.194,-0.2063
8.195,-0.4722
8.196,-0.2357
8.197,-0.0448
8.198,-0.0588
8.199,0.2491
8.2,0.0487
8.201,0.2264
8.202,0.9521
8.203,0.0964
8.204,0.6637
8.205,-0.0833
8.206,0.0994
8.207,0.199
8.208,0.0184
8.209,0.4602
8.21,0.4402
8.211,0.174
8.212,0.0237
8.213,-0.2155
8.214,-0.3325
8.215,-0.1425
8.216,-0.5254
8.217,-0.3794
8.218,-0.0393
8.219,-0.5794
8.22,0.1162
8.221,0.3763
8.222,0.2545
8.223,0.2261
8.224,0.641
8.225,0.6674
8.226,0.5391
8.227,0.466
8.228,0.0871
8.229,-0.0577
8.23,-0.2401
8.231,-0.208
8.232,0.0624
8.233,-0.1973
8.234,0.3581
8.235,-0.2621
8.236,-0.2249
8.237,-0.1217
8.238,0.2149
8.239,0.3378
8.24,0.016
8.241,0.1075
8.242,0.2813
8.243,0.2775
8.244,0.5001
8.245,0.5563
8.246,0.54
8.247,0.343
8.248,0.3161
8.249,0.1583
8.25,0.5217
8.251,-0.0005
8.252,0.007
8.253,-0.3913
8.254,-0.3706
8.255,-0.2836
8.256,-0.3312
8.257,0.0181
8.258,-0.0495
8.259,-0.0371
8.26,0.1493
8.261,0.0132
8.262,0.3694
8.263,0.4399
8.264,0.5058
8.265,0.5749
8.266,0.7329
8.267,0.272
8.268,0.2359
8.269,0.5945
8.27,0.0738
8.271,-0.0233
8.272,-0.1215
8.273,-0.2617
8.274,-0.0902
8.275,-0.3888
8.276,-0.0968
8.277,-0.2401
8.278,-0.127
8.279,0.0777
8.28,0.2287
8.281,0.3779
8.282,0.3538
8.283,0.5764
8.284,0.4531
8.285,0.5367
8.286,0.3774
8.287,0.2959
8.288,0.4271
8.289,0.4483
8.29,0.0954
8.291,0.029
8.292,0.0063
8.293,-0.1501
8.294,-0.1447
8.295,-0.2938
8.296,-0.1438
8.297,-0.1439
8.298,-0.1106
8.299,-0.0527
8.3,-0.0052
8.301,0.2692
8.302,0.2298
8.303,0.3434
8.304,0.5896
8.305,0.7211
8.306,0.4404
8.307,0.5393
8.308,0.6209
8.309,0.3749
8.31,0.315
8.311,0.0725
8.312,-0.1106
8.313,-0.0053
8.314,-0.1246
8.315,-0.253
8.316,-0.2779
8.317,-0.2157
8.318,-0.1423
8.319,0.0498
8.32,0.3991
8.321,0.4881
8.322,0.2232
8.323,0.387
8.324,0.6992
8.325,0.429
8.326,0.4192
8.327,0.397
8.328,0.4802
8.329,0.2552
8.33,0.0427
8.331,0.1348
8.332,-0.0839
8.333,-0.0742
8.334,-0.2777
8.335,-0.3554
8.336,-0.1422
8.337,-0.0519
8.338,-0.0262
8.339,0.0172
8.34,0.294
8.341,0.205
8.342,0.5042
8.343,0.4542
8.344,0.4867
8.345,0.6154
8.346,0.6264
8.347,0.525
8.348,0.3089
8.349,0.3029
8.35,0.2062
8.351,0.1755
8.352,0.1308
8.353,-0.3113
8.354,-0.1654
8.355,-0.078
8.356,-0.2668
8.357,-0.0632
8.358,-0.1304
8.359,0.1427
8.36,0.2713
8.361,0.3571
8.362,0.4682
8.363,0.4778
8.364,0.5682
8.365,0.625
8.366,0.6356
8.367,0.465
8.368,0.4738
8.369,0.387
8.37,0.2864
8.371,0.0661
8.372,-0.0531
8.373,0.0094
8.374,-0.2088
8.375,-0.2712
8.376,-0.1924
8.377,-0.1556
8.378,-0.1762
8.379,-0.008
8.38,0.2156
8.381,0.1954
8.382,0.4264
8.383,0.4318
8.384,0.5603
8.385,0.5272
8.386,0.5461
8.387,0.4708
8.388,0.4405
8.389,0.3968
8.39,0.2337
8.391,0.0935
8.392,0.0923
8.393,-0.1854
8.394,-0.2906
8.395,-0.1756
8.396,-0.1356
8.397,-0.068
8.398,-0.2017
8.399,0.0306
8.4,0.2773
8.401,0.2622
8.402,0.4402
8.403,0.4114
8.404,0.5685
8.405,0.547
8.406,0.5358
8.407,0.5996
8.408,0.4615
8.409,0.3129
8.41,0.2892
8.411,0.1309
8.412,0.0045
8.413,-0.1625
8.414,-0.1377
8.415,-0.2798
8.416,-0.1111
